Node n°,z,Temperature,Rhov,Enthalpy,DepositionRate,Sigma
1,0,272.99869900487613,0.004787965252153829,10299.392418758045,-9.401918617521435e-05,551.623471900288
2,0.003002897778398039,272.91186524899695,0.004755296451614084,-30052.880726884938,4.504212017249399e-06,545.1015546913628
3,0.006256367695930597,272.82434351266954,0.004722572982152526,-71608.85362432642,-3.2706434996789684e-07,537.7072501319202
4,0.009518598475895507,272.7356325496038,0.004689612880422525,-111737.56608002869,-1.5855342108238128e-07,530.33972509828
5,0.012795042989021737,272.6458424505571,0.004656463882592329,-152538.2824065412,-1.5961745578666634e-07,522.9728574059136
6,0.0160858762255101,272.5549485862532,0.004623123440860215,-193325.6970572412,-1.5653653798647472e-07,515.6068609702997
7,0.019391316854519162,272.46293152496355,0.004589591141277344,-234290.47402589564,-1.5377937040882586e-07,508.2415139699797
8,0.02271156033200428,272.3697714730127,0.004555866636839338,-275383.1453685006,-1.511613330626152e-07,500.87668643961314
9,0.026046793646633946,272.2754481613542,0.004521949612097952,-316618.3186920706,-1.4863489122310023e-07,493.5122912450408
10,0.029397201475592213,272.17994073449734,0.004487839750283488,-357993.31143153494,-1.4616800602092916e-07,486.1482663398705
11,0.03276296927179745,272.08322769638187,0.0044535367222305845,-399509.9714589356,-1.4373835287164134e-07,478.784565375199
12,0.036144284910279455,271.9852868790268,0.004419040184157428,-441168.8785699043,-1.4132941336634791e-07,471.4211524317801
13,0.03954133962439743,271.8860954206622,0.004384349779283899,-482970.91592518415,-1.3892837803537266e-07,464.05799886790294
14,0.04295432857274214,271.78562974750406,0.0043494651411082295,-524916.8639206693,-1.3652493396939348e-07,456.6950813251334
15,0.0463834512046097,271.6838655565294,0.00431438589737354,-567007.5186764661,-1.3411051983351568e-07,449.3323804055507
16,0.04982891151103701,271.58077779802625,0.004279111674291155,-609243.6679209635,-1.3167784425429275e-07,441.96987975902204
17,0.053290918208591,271.4763406573479,0.0042436421008317975,-651626.103593503,-1.292205612898197e-07,434.60756543235294
18,0.056769684882563315,271.3705275356038,0.004207976813011067,-694155.6237963503,-1.2673304302728753e-07,427.24542539226314
19,0.060265430105144284,271.263311029169,0.004172115458150465,-736833.0371228316,-1.242102152599739e-07,419.88344916758854
20,0.06377837753791749,271.1546629079654,0.004136057699119613,-779659.1661229514,-1.216474351162576e-07,412.5216275755832
21,0.06730875602438323,271.0445540925022,0.0040998032185806735,-822634.8509438344,-1.1904039946794342e-07,405.15995250897146
22,0.07085679967601959,270.9329546296776,0.004063351723258207,-865760.9529994306,-1.1638507266325442e-07,397.7984167677939
23,0.07442274795401542,270.8198336673515,0.004026702948263001,-909038.358810699,-1.1367763021359957e-07,390.4370139248771
24,0.07800684574792618,270.7051594277017,0.003989856661496173,-952467.9840666925,-1.1091441397443519e-07,383.0757382169334
25,0.08160934345191072,270.588899179376,0.003952812668162382,-996050.7779691226,-1.080918949278285e-07,375.71458445547125
26,0.08523049703880216,270.4710192084529,0.003915570815419094,-1039787.7279166719,-1.052066431228354e-07,368.3535479531965
27,0.08887056813196964,270.3514847882244,0.0038781309971894448,-1083679.8645838487,-1.0225530213476463e-07,360.99262446266346
28,0.0925298240747067,270.2302601478169,0.0038404931591664478,-1127728.2674483533,-9.923456774486375e-08,353.63181012469965
29,0.09620853799670442,270.1073084396654,0.003802657304035342,-1171934.0708251332,-9.614116934122809e-08,346.27110142469496
30,0.09990698887701638,269.9825917058621,0.0037646234969428882,-1216298.4704662256,-9.297185402902614e-08,338.9104951552649
31,0.10362546160278698,269.8560708434038,0.0037263918712415692,-1260822.7307858898,-8.972337256073814e-08,331.5499883841123
32,0.10736424702288612,269.7277055683682,0.0036879626345384603,-1305508.1927920766,-8.639246686653965e-08,324.18957842615146
33,0.11112364199546565,269.5974543790566,0.0036493360750788576,-1350356.282745306,-8.297585925736164e-08,316.8292628191445
34,0.11490394942832349,269.46527451814893,0.0036105125684968227,-1395368.5218087423,-7.947024219447891e-08,309.46903930223914
35,0.11870547831082372,269.3311219339279,0.003571492584964959,-1440546.5360838734,-7.587226952546336e-08,302.1089057969152
36,0.1225285437359793,269.194951240641,0.0035322766967787055,-1485892.0696840705,-7.217854840487231e-08,294.7488603899279
37,0.12637346691114426,269.05671567808366,0.003492865586411178,-1531406.9914087455,-6.838563221618175e-08,287.38890131791715
38,0.13024057515559773,268.91636707050293,0.003453260055076859,-1577093.3306126362,-6.449001378823916e-08,280.02902695340305
39,0.13413020188312128,268.77385578494096,0.0034134610318445353,-1622953.2103080153,-6.048811997832484e-08,272.66923579193394
40,0.13804268656747407,268.6291306891592,0.003373469583342079,-1668989.1691214947,-5.6376306955879076e-08,265.30952644019334
41,0.14197837468845337,268.48213910930707,0.0033332869240979396,-1715203.0432693097,-5.215085579316659e-08,257.94989760491086
42,0.14593761765600713,268.33282678753096,0.003292914427567061,-1761600.2144744708,-4.7807969921437453e-08,250.59034808243288
43,0.14992077270960524,268.18113783974604,0.0032523536378914024,-1808173.8996192797,-4.334377286591776e-08,243.23087674885193
44,0.15392820278981684,268.0270147138331,0.003211606282448589,-1854963.711870655,-3.8754317873483095e-08,235.8714825506079
45,0.15796027637867072,267.8703981485285,0.003170674285237488,-1901837.8826226196,-3.403642943725264e-08,228.51216449671563
46,0.1620173672976139,267.71122713071634,0.003129559780484737,-1949303.5930345627,-2.9243810025204924e-08,221.15292175743704
47,0.16609985379917847,267.54943867748494,0.0030882650824422026,-1995487.1960240677,-2.7284189357413052e-08,213.79376120238
48,0.17020806922347168,267.3849591329441,0.0030467905325365593,-2047108.3261387493,-1.2552735516354205e-07,206.4351071858723
49,0.17433942806448705,267.217456769223,0.0030050734300927336,-2069674.3540306971,-1.902353780084428e-06,199.09375401536167
50,0.17832774159676074,267.0473593542346,0.0029632407158924536,-2032827.8849932514,-3.4397286430833177e-06,192.24498391334066
51,0.1819586377796151,266.88046275672053,0.002922709158275335,-1986806.1902347032,-3.1959184903678043e-06,186.3287282949744
52,0.18516563646628223,266.72388449615806,0.002885141241742116,-1959508.351236765,-2.8997080349481434e-06,181.32649261575833
53,0.18788916301415148,266.5845396103747,0.0028520770145775594,-1949121.97833653,-1.3464518605567336e-06,177.2237523349206
54,0.19036678428878542,266.4548043128952,0.002821602319726033,-1969036.3700498096,-2.2949437722854068e-07,173.55517023608186
55,0.19286988306363895,266.3223552479528,0.002790795135784319,-1994318.0273726908,-3.780927479282593e-07,169.8761997898409
56,0.19539486973682682,266.18710219596403,0.0027596509243272968,-2016192.6490449845,-3.6569304779466035e-07,166.1977125972531
57,0.197942538539365,266.04894213390094,0.0027281631660413573,-2038998.580417871,-3.6297120223121924e-07,162.51923255275318
58,0.2005135934683235,265.90775823816915,0.002696323300781528,-2061437.160901085,-3.5939071337515744e-07,158.84077376126655
59,0.20310877575196132,265.7634275999988,0.00266412262116693,-2083850.333559413,-3.5534093270007474e-07,155.16233237920994
60,0.20572886258273967,265.61582034379194,0.002631552171210466,-2106136.2408856666,-3.507631503065133e-07,151.48390474254734
61,0.20837466928200507,265.4647991785507,0.002598602754149424,-2128311.2075446933,-3.456083850961331e-07,147.80548681253438
62,0.21104705150882277,265.3102189014838,0.00256526493926365,-2150359.6954097054,-3.398232464587559e-07,144.1270741533165
63,0.21374690759049844,265.15192586869154,0.002531529071970077,-2172274.349646993,-3.333500199138853e-07,140.448661895094
64,0.21647518097444324,264.98975743105274,0.0024973852877044835,-2194045.3606668953,-3.2612641932436825e-07,136.77024469565058
65,0.2192328628008531,264.8235413340606,0.002462823530298849,-2215663.3521377677,-3.180853640534155e-07,133.09181670006046
66,0.2220209945935169,264.6530950806198,0.002427833575670898,-2237118.677335685,-3.091547827818958e-07,129.4133714986808
67,0.22484067106331762,264.4782252561938,0.0023924050617685666,-2258401.689919646,-2.9925745837461735e-07,125.73490208358716
68,0.22769304301549226,264.29872681620935,0.0023565275258538515,-2279502.7750520934,-2.8831092727910386e-07,122.05640080367787
69,0.23057932034730122,264.1143823363028,0.0023201904503689667,-2300412.4679745785,-2.762274528624317e-07,118.37785931876392
70,0.2335007751172774,263.924961226884,0.00228338331880436,-2321121.576913188,-2.629140954027199e-07,114.69926855302266
71,0.23645874466036193,263.7302189146295,0.002246095683182107,-2341621.3370904094,-2.4827290535809026e-07,111.02061864834926
72,0.2394546347148467,263.52989599495965,0.002208317244979431,-2361903.5939698718,-2.3220127058183712e-07,107.34189891823601
73,0.24248992251674334,263.3237173613635,0.0021700379515427587,-2381961.0221758243,-2.1459245449129743e-07,103.66309780296996
74,0.24556615980468913,263.1113913196815,0.002131248110280286,-2401787.385036853,-1.9533636700451294e-07,99.9842028271071
75,0.24868497566342512,262.8926086982142,0.0020919385231634507,-2421377.8408448454,-1.7432061395273693e-07,96.30520056034445
76,0.251848079115785,262.66704196789146,0.0020521006443069067,-2440729.302355137,-1.5143187630067687e-07,92.62607658312784
77,0.2550572613516811,262.43434439079385,0.002011726763618439,-2459840.8566332436,-1.2655767496739513e-07,88.94681545850341
78,0.2583143974572793,262.1941492201607,0.001970810219698039,-2478714.2527965084,-9.958857529758812e-08,85.26740071192452
79,0.2616214474781149,261.9460689807469,0.0019293456452934695,-2497354.465503084,-7.042088922373507e-08,81.58781482087333
80,0.2649804566160123,261.6896948650609,0.0018873292486564044,-2515770.3421147494,-3.89599233809043e-08,77.90803921626733
81,0.26839355432125184,261.4245962886947,0.0018447591340479002,-2533975.3411743995,-5.123815126855121e-09,74.22805429763547
82,0.27186295199866695,261.15032065662785,0.0018016356643609174,-2551988.3691699076,3.115202197094256e-08,70.5478394639118
83,0.2753909389998552,260.8663934019965,0.0017579618683004367,-2569834.720943664,6.990984514770544e-08,66.86737316133448
84,0.2789798765246619,260.57231836917697,0.0017137438937104542,-2587547.1278551775,1.1116396122779589e-07,63.18663294923141
85,0.28263218900559517,260.2675786238289,0.001668991507379311,-2605166.9112362876,1.5489462591434618e-07,59.505595583266704
86,0.2863503525019968,259.9516377832716,0.0016237186398957541,-2622745.246881232,2.0104161129499916e-07,55.82423711376892
87,0.2901368795912337,259.6239419704647,0.001577943971774861,-2640344.4941358394,2.4949766491106287e-07,52.142532993652495
88,0.2939943002181461,259.2839225028987,0.0015316915540398341,-2658039.708079803,3.001021692200394e-07,48.46045818560025
89,0.29792513795986536,258.93099943249774,0.0014849914526727937,-2675919.8092010473,3.5263540526193543e-07,44.777987250489375
90,0.30193188119138226,258.56458605249657,0.0014378804018203672,-2694090.2281756145,4.0681392603618146e-07,41.09509438663865
91,0.3060169487106568,258.18409448020765,0.001390402445423948,-2712670.1422211993,4.622876542419039e-07,37.41175336868678
92,0.31018264951513247,257.78894240861837,0.0013426095412229174,-2731809.558545558,5.186394419505619e-07,33.727937298663655
93,0.3144311366296635,257.37856109323366,0.001294562095217046,-2751632.715129663,5.753879961724312e-07,30.04361801561738
94,0.3187643551834174,256.95240460330973,0.0012463293893013954,-2772453.393089158,6.319953612815171e-07,26.358764883897347
95,0.32318398532954906,256.50996032199777,0.0011979898609470782,-2793985.134582898,6.878807074491331e-07,22.673342430637646
96,0.327691381091168,256.0507606395029,0.0011496311932274778,-2818266.6947875023,7.424434737321571e-07,18.987305799241668
97,0.3322875067578465,255.57439577837596,0.0011013501793081574,-2838860.3183488054,7.951230702428707e-07,15.30059194238374
98,0.3369728730189227,255.08052800513553,0.0010532523635760197,-2880802.0232771174,8.470461607406636e-07,11.613099540698746
99,0.34174748306593145,254.5689244975737,0.0010054530173979534,-2853473.823278368,9.833446752736864e-07,7.924429956831097
100,0.34661118950119607,254.0404635547345,0.0009581625265132949,-3123318.2896590354,4.219234594166665e-06,4.221189642763694
101,0.3515724822579142,253.53660616496234,0.0009149715139342023,-3493842.0321801943,6.131122401155367e-05,0.0
