Node n°,z,Temperature,Rhov,Enthalpy,DepositionRate,Sigma
1,0,272.99743521516484,0.00478748833345779,10055.654011263056,-0.00012209541564266836,551.6239904140147
2,0.0025452191549016965,272.91286265627963,0.004755670530908383,-34020.00640482584,1.0806630457976015e-05,545.683957529186
3,0.0054674630170917825,272.82890008942275,0.004724271562835246,-79445.44173346297,-7.995248261527527e-07,538.2455588051736
4,0.008388728160073761,272.7435055243793,0.004692529555579364,-122099.05075303838,-1.4007397546659623e-07,530.8824128704578
5,0.011321352716108672,272.65720414913443,0.00466064662102485,-166110.71928220426,-1.6951169773729975e-07,523.5176267791712
6,0.014265270430906548,272.56994291898155,0.004628608465067138,-209900.92758684055,-1.6838759194242713e-07,516.1537899923229
7,0.017220732532667055,272.48170076989163,0.004596412915360383,-253926.59486582252,-1.6857163297606264e-07,508.7905942527076
8,0.02018795867054001,272.3924551776089,0.004564057471003123,-298065.97308696783,-1.6884445885815994e-07,501.4279145880776
9,0.023167160561800924,272.3021831314954,0.00453153967038621,-342353.3395115085,-1.6921663142458809e-07,494.06566530799455
10,0.02615854816310364,272.21086090941895,0.004498857017916423,-386780.97729186114,-1.6966995482906934e-07,486.7037855064114
11,0.029162333069753795,272.11846397049396,0.004466006955745699,-431352.26793727285,-1.701924389128728e-07,479.3422297161929
12,0.032178730473892046,272.02496687869865,0.004432986847998878,-476067.53072075377,-1.7077520606528382e-07,471.9809627156595
13,0.03520796040516904,271.9303432408289,0.004399793971232896,-520927.83118553075,-1.7141139543980145e-07,464.6199564206382
14,0.038250248593449214,271.83456565039825,0.004366425507995919,-565933.9755383857,-1.7209550161356292e-07,457.25918791868867
15,0.04130582712405891,271.73760563331825,0.004332878541968949,-611086.7870842713,-1.7282296151864677e-07,449.8986381654468
16,0.044374934976146266,271.6394335931309,0.004299150053913935,-656387.036692799,-1.7358988059517222e-07,442.53829108507483
17,0.04745781849490829,271.5400187545025,0.004265236918014961,-701835.4637335717,-1.743928444330688e-07,435.1781329286338
18,0.05055473182761136,271.43932910415623,0.004231135898382525,-747432.7714551624,-1.7522878176586425e-07,427.81815180351884
19,0.05366593734193236,271.33733132866286,0.0041968436455899075,-793179.6282375184,-1.7609486140992013e-07,420.4583373201098
20,0.05679170603864458,271.2339907486328,0.004162356693163875,-839076.6665795001,-1.7698841252638138e-07,413.0986803209966
21,0.05993231796683321,271.1292712489127,0.004127671453984569,-885124.4821717293,-1.7790685898084774e-07,405.739172669754
22,0.06308806264748275,271.02313520441845,0.004092784216566446,-931323.6325542658,-1.7884766509372477e-07,398.3798070835331
23,0.06625923950981787,270.9155434012399,0.004057691141205188,-977674.6355799475,-1.7980828790202736e-07,391.02057699844846
24,0.06944615834385386,270.8064549526456,0.004022388255982252,-1024177.9677012528,-1.8078613412226518e-07,383.661476459872
25,0.07264913977201651,270.69582720960136,0.003986871452624526,-1070834.062131196,-1.8177852008854743e-07,376.3025000318803
26,0.07586851574231071,270.5836156653933,0.003951136482220449,-1117643.3069220996,-1.8278263356887902e-07,368.94364272158634
27,0.07910463004528108,270.46977385391796,0.003915178950797606,-1164606.0430003242,-1.8379549540060694e-07,361.58489991512647
28,0.08235783885685169,270.35425324117375,0.003878994314769525,-1211722.5622006573,-1.8481392176511314e-07,354.22626732284925
29,0.08562851130905917,270.23700310945094,0.0038425778762637233,-1258993.1053444168,-1.858344836312871e-07,346.8677409317828
30,0.08891703009064358,270.117970433682,0.003805924778345294,-1306417.860415347,-1.8685346699307787e-07,339.509316963885
31,0.09222379207945931,269.9970997493698,0.0037690300001549364,-1353996.9608859988,-1.8786682741579792e-07,332.1509918388676
32,0.09554920900866526,269.8743330114712,0.003731888351985144,-1401730.484272775,-1.888701444776776e-07,324.79276214063924
33,0.0988937081686823,269.74960944356167,0.0036944944703225,-1449618.450973243,-1.898585706452695e-07,317.4346245865663
34,0.10225773314692349,269.62286537655893,0.0036568428128911745,-1497660.8235639094,-1.9082677636900403e-07,310.07657599889893
35,0.10564174460732302,269.4940340762295,0.003618927653739245,-1545857.5063569164,-1.9176889061932643e-07,302.7186132778184
36,0.10904622111171511,269.3630455586436,0.0035807430784180034,-1594208.346499853,-1.9267843546402102e-07,295.36073337562345
37,0.11247165998510587,269.2298263926853,0.0035422829793141574,-1642713.1324793282,-1.9354825431891262e-07,288.00293327166287
38,0.11591857822687615,269.0942994886637,0.003503541051206405,-1691371.606175881,-1.9437043308024506e-07,280.6452099476521
39,0.11938751346991158,268.95638387200455,0.0034645107871311446,-1740183.429273555,-1.9513621395295046e-07,273.28756036305754
40,0.1228790249895856,268.8159944409362,0.0034251854746581343,-1789148.3252992465,-1.9583590002012472e-07,265.9299814302599
41,0.12639369476440293,268.67304170701743,0.003385558192694751,-1838265.5753478361,-1.9645875063345393e-07,258.5724699892421
42,0.1299321285899573,268.52743151728805,0.0033456218089595127,-1887535.9264728227,-1.9699286655475612e-07,251.21502278153972
43,0.1334949572476049,268.37906475675743,0.0033053689782897534,-1936954.536080161,-1.9742507787239126e-07,243.85763642327123
44,0.13708283772887223,268.2278370298506,0.003264792141968308,-1986537.2678301614,-1.9774141702860346e-07,236.50030737841908
45,0.14069645451206061,268.0736383178928,0.003223883527897536,-2036222.9221773895,-1.9794781510532003e-07,229.1430319915523
46,0.1443365207070739,267.9163525597623,0.0031826351385132656,-2086235.3837677476,-1.9863398253026557e-07,221.78580869708347
47,0.1480037721904196,267.75585580686277,0.0031410383807728573,-2135693.965535669,-2.122177960934422e-07,214.42870377868317
48,0.1516987379292131,267.591988820498,0.0030990772277669884,-2186873.4203160913,-4.052255162617031e-07,207.0733677733635
49,0.15541547218186938,267.42432850381886,0.0030566713379245923,-2216951.4952409416,-1.7970151757333956e-06,199.74955781132434
50,0.1589615639162605,267.25764953734586,0.0030150358393480265,-2212476.165211591,-2.681699267315331e-06,192.93944444612663
51,0.1621222731779141,267.1013154839756,0.0029764525019907832,-2205743.5820102296,-2.2804961345923888e-06,187.06398935545067
52,0.16486392926374346,266.9603688496339,0.0029420511789952667,-2210488.887627037,-1.915294857618798e-06,182.093185047168
53,0.16715917368664376,266.83895018449863,0.0029127056470687057,-2222674.672424171,-8.847805408203545e-07,178.00849839532972
54,0.169236886741092,266.72735838896836,0.0028859695282794427,-2247407.4659113027,-4.293436416167194e-07,174.34673110761554
55,0.1713358664340085,266.6134289246415,0.0028589031356727615,-2272044.19301211,-6.317804402473595e-07,170.67193267584966
56,0.17345091819945344,266.49718239763916,0.0028315237763074695,-2294745.3067630464,-6.082763032281799e-07,166.99845358693213
57,0.17558292652494467,266.3785337004574,0.0028038240981789015,-2318142.670068917,-6.213112728302261e-07,163.32497088111612
58,0.17773244810534802,266.25737382477814,0.0027757920322498673,-2341148.2514710934,-6.306211406766418e-07,159.65159789264501
59,0.17990009415329272,266.1335895210229,0.002747415546195484,-2364077.8790151766,-6.403415736765243e-07,155.9783231906184
60,0.18208650975612134,266.00705967104653,0.002718681889539974,-2386827.4957184815,-6.501282928535143e-07,152.30514363286792
61,0.18429237785311414,265.877654898131,0.0026895776128975364,-2409407.48221523,-6.599750826307392e-07,148.6320548257274
62,0.18651842214170625,265.74523681913325,0.002660088516572553,-2431796.246480198,-6.698494327632049e-07,144.9590515836321
63,0.188765410332438,265.60965723864797,0.002630199600321437,-2453979.439692982,-6.797138665113818e-07,141.28612778915559
64,0.19103415771780438,265.47075725556704,0.00259989500941966,-2475939.3959138137,-6.89523840232685e-07,137.6132762688072
65,0.19332553109302672,265.32836627259064,0.0025691579771536356,-2497657.858943085,-6.992266779886622e-07,133.94048865230846
66,0.19564045306809444,265.1823008967117,0.0025379707636286383,-2519115.1615149286,-7.087602839476447e-07,130.2677552148027
67,0.19797990681523733,265.03236371718,0.0025063145908459034,-2540290.348245385,-7.180516643178974e-07,126.59506469986063
68,0.20034494130119046,264.8783419456826,0.0024741695740738154,-2561161.0457253954,-7.270152314682865e-07,122.92240412098778
69,0.20273667705937665,264.7200059014845,0.0024415146496375648,-2581703.4004254616,-7.355508578543575e-07,119.24975853910452
70,0.20515631256347236,264.5571073220452,0.0024083274993866644,-2601892.0011098697,-7.435416536063482e-07,115.57711081320217
71,0.20760513127067273,264.3893774771457,0.0023745844722836904,-2621699.8109008973,-7.508514342810473e-07,111.90444132118701
72,0.21008450941038198,264.2165250618111,0.002340260503799924,-2641098.1061861957,-7.573218454649335e-07,108.23172764766784
73,0.21259592460184215,264.0382338403189,0.0023053290341270233,-2660056.4282335658,-7.627691171325108e-07,104.55894423528595
74,0.21514096539226146,263.8541600103369,0.002269761926636698,-2678542.5526267616,-7.669804216735129e-07,100.88606199605866
75,0.21772134181501107,263.66392925281133,0.002233529388574032,-2696522.483819803,-7.697098175619546e-07,97.2130478791759
76,0.22033889707494336,263.4671334296981,0.002196599896689884,-2713960.4840370263,-7.706737821339016e-07,93.53986439185144
77,0.22299562047423618,263.26332688814733,0.002158940131448671,-2730819.1484117913,-7.695463519286498e-07,89.8664690701486
78,0.22569366169630103,263.05202232655677,0.0021205149246469462,-2747059.54155069,-7.659539327736018e-07,86.19281389738481
79,0.2284353465658038,262.83268617534543,0.0020812872268154516,-2762641.4148578825,-7.594698886616326e-07,82.51884466879984
80,0.23122319439761707,262.604733443902,0.002041218102736126,-2777523.5291420473,-7.49609091788064e-07,78.84450030284579
81,0.23405993703357775,262.3675219856914,0.0020002667658895745,-2791664.1134166652,-7.358227212319499e-07,75.16971210192844
82,0.2369485396391741,262.12034613705066,0.001958390665772653,-2805021.4988724953,-7.174937276454757e-07,71.49440296887555
83,0.23989222328694207,261.8624296933024,0.0019155456459254959,-2817554.9761407757,-6.939335646356029e-07,67.81848659019465
84,0.24289448928164428,261.5929182005902,0.0018716861953199904,-2829225.9375969544,-6.643810159558842e-07,64.14186660355031
85,0.24595914507363675,261.31087056618026,0.001826765821623632,-2839999.373074923,-6.280042299370956e-07,60.46443577520865
86,0.24909033144717474,261.01525002776526,0.001780737581865087,-2849845.8302105307,-5.839074134394143e-07,56.78607522372528
87,0.252292550441522,260.7049145786277,0.0017335548142174298,-2858743.870064677,-5.311440134696445e-07,53.10665373893809
88,0.2555706931413099,260.37860702689284,0.0016851721238628295,-2866683.433001307,-4.68738600520135e-07,49.42602726017124
89,0.25893006603028446,260.03494498156243,0.001635546685833439,-2873669.2042457606,-3.9571999450466565e-07,45.744038593262516
90,0.2623764140062073,259.6724112150751,0.0015846399375492816,-2879728.04994026,-3.1116832704126445e-07,42.060517460125205
91,0.26591593736907787,259.2893450622047,0.0015324197420756934,-2884906.3120081862,-2.142785371845259e-07,38.37528098154349
92,0.2695552990882477,258.88393578833706,0.0014788631075765863,-2889310.169218856,-1.0444199052130417e-07,34.68813468308779
93,0.27330161740916004,258.45421920414134,0.001423959545513714,-2892994.0177361807,1.8653862471773527e-08,30.998874064470787
94,0.2771624373930804,257.99807921986843,0.0013677151348689292,-2896415.4907995337,1.5491107135681233e-07,27.307286643318204
95,0.2811456733687704,257.5132565121233,0.0013101573257190556,-2898814.885457298,3.0370158053737783e-07,23.6131540927031
96,0.2852595126839289,256.9973670047789,0.001251340456842842,-2904232.919941319,4.6380182242147677e-07,19.91625339069237
97,0.2895122700523216,256.4479337236589,0.0011913519061471252,-2899487.179074506,6.346693339739085e-07,16.216351174051503
98,0.2939121885206141,255.86244665271073,0.0011303197312819266,-2935386.7124772104,8.488007546838471e-07,12.513071340642972
99,0.29846738163509395,255.23874648705208,0.0010684492108103375,-2835941.9279939253,1.7597586726365864e-06,8.802565538710796
100,0.30318977581904893,254.58182027393343,0.0010066336429712097,-3414316.9191726693,1.1395824256175622e-05,5.008671957359279
101,0.3081218079934111,254.0085100559028,0.0009553696163557614,-4165522.211425148,7.127896327250974e-05,0.0
