time,Energy Leak from beginning
900,-1.9819823343132157
1800,-3.1258690571841004
2700,-3.8379407383326907
3600,-4.310884055229617
4500,-4.644912264195008
5400,-4.894109136368351
6300,-5.088665404805726
7200,-5.2461290398003655
8100,-5.377173292925221
9000,-5.4886016006147145
9900,-5.584951701175527
10800,-5.66937978010705
11700,-5.744162977084637
12600,-5.810998763459869
13500,-5.871184987732419
14400,-5.925737973902584
15300,-5.975467434562967
16200,-6.021030213253038
17100,-6.062965322861567
18000,-6.1017206597083025
18900,-6.1376718991758406
19800,-6.171137428854635
20700,-6.202388446499171
21600,-6.2316580391028396
22500,-6.259147055051798
23400,-6.285030406810837
24300,-6.309460080459975
25200,-6.332569333329374
26100,-6.354475529210392
27000,-6.375281919915212
27900,-6.3950798437766885
28800,-6.413950264054431
29700,-6.43196492757684
30600,-6.449188035609619
31500,-6.465676831199522
32400,-6.481482301607462
33300,-6.4966501225733335
34200,-6.511221738694654
35100,-6.5252337846661925
36000,-6.53871993818429
36900,-6.5517100003352216
37800,-6.564230973905866
38700,-6.576307862791726
39600,-6.587962872609058
40500,-6.599216041227117
41400,-6.610086293060811
42300,-6.620590448160436
43200,-6.630744120484449
44100,-6.640561352411967
45000,-6.6500554411185275
45900,-6.659238667650132
46800,-6.668122161616337
47700,-6.676716208660072
48600,-6.68503046488571
49500,-6.693074219120387
50400,-6.700855521269329
51300,-6.70838269307489
52200,-6.715663376539959
53100,-6.722704085902948
54000,-6.729511965490598
54900,-6.736092854876476
55800,-6.7424531791952145
56700,-6.748598418795954
57600,-6.754534258911446
58500,-6.760265854606915
59400,-6.765798829857305
60300,-6.771137331621361
61200,-6.77628615011549
62100,-6.781249801313903
63000,-6.786032975405695
63900,-6.790639726969902
64800,-6.795074084861925
65700,-6.799339952323436
66600,-6.8034415260717775
67500,-6.807382408599235
68400,-6.811166304579396
69300,-6.814796475047856
70200,-6.818276747953073
71100,-6.821610363848899
72000,-6.824800699415152
72900,-6.827850854842707
73800,-6.830764526504806
74700,-6.833544193479481
75600,-6.836193212285593
76500,-6.838714654651426
77400,-6.841111308468401
78300,-6.8433859719914585
79200,-6.845541269324615
80100,-6.847580306692191
81000,-6.849505333034479
81900,-6.851319050672839
82800,-6.853024394071338
83700,-6.854623425804687
84600,-6.856118815248712
85500,-6.857512858081256
86400,-6.858808514846616
87300,-6.860007264471289
88200,-6.861111852845071
89100,-6.862124537098581
90000,-6.863047121785723
90900,-6.863882014361599
91800,-6.864631185782065
92700,-6.865297286168363
93600,-6.865881554295931
94500,-6.866385973561711
95400,-6.866812746704465
96300,-6.867163943367934
97200,-6.867441166157743
98100,-6.867646258086108
99000,-6.867781112721797
99900,-6.867847338866351
100800,-6.867846793825167
101700,-6.867781237388855
102600,-6.867652104275195
103500,-6.8674610287071225
104400,-6.86720966365364
105300,-6.866899703202663
106200,-6.866532213733891
107100,-6.866108798577344
108000,-6.865631214541292
108900,-6.865100854784843
109800,-6.864518623649721
110700,-6.863886252957756
111600,-6.863205036129231
112500,-6.862476499295455
113400,-6.8617013786394185
114300,-6.8608813212294
115200,-6.860017352660081
116100,-6.859110759144543
117000,-6.858162693980277
117900,-6.857174603247707
118800,-6.856147020918009
119700,-6.855081588183687
120600,-6.853979233574948
121500,-6.852840750138868
122400,-6.851667400022863
123300,-6.8504602846905
124200,-6.8492201312152705
125100,-6.847947901942834
126000,-6.846644729679983
126900,-6.845311632451202
127800,-6.843949286658616
128700,-6.8425586494091934
129600,-6.841140446786896
130500,-6.839695648649369
131400,-6.8382252026448365
132300,-6.836729880897921
133200,-6.835210508065658
134100,-6.833667703970725
135000,-6.832102351393708
135900,-6.830514688403938
136800,-6.82890622618551
137700,-6.827277270008501
138600,-6.825628759782716
139500,-6.823961225781544
140400,-6.822275363206585
141300,-6.820571908997529
142200,-6.818851300785475
143100,-6.8171141853755515
144000,-6.815361323163536
144900,-6.813593061445438
145800,-6.811810059043068
146700,-6.810012767156308
147600,-6.808202296502144
148500,-6.806378812826892
149400,-6.8045426074889965
150300,-6.802694712275857
151200,-6.800835320179771
152100,-6.7989647690041
153000,-6.79708376472206
153900,-6.79519282019975
154800,-6.793292469495659
155700,-6.791382988134151
156600,-6.789464979697965
157500,-6.787538612264922
158400,-6.78560455801549
159300,-6.7836630487632785
160200,-6.781714573711374
161100,-6.779759326867511
162000,-6.777798146014552
162900,-6.775831069425634
163800,-6.773858719832218
164700,-6.771881002823078
165600,-6.769898617965387
166500,-6.767911961656514
167400,-6.765921127463676
168300,-6.763926282471962
169200,-6.761928377590825
170100,-6.75992738671413
171000,-6.757923748873159
171900,-6.75591758045253
172800,-6.753909029564835
173700,-6.751898526450401
174600,-6.749886433335502
175500,-6.747872956740918
176400,-6.745858511423737
177300,-6.743843122996931
178200,-6.741827032734452
179100,-6.739810590430441
180000,-6.737794073476704
180900,-6.735777398836814
181800,-6.733761369836299
182700,-6.7317457099305615
183600,-6.729730616065223
184500,-6.7277166440054295
185400,-6.7257036873507765
186300,-6.723692357716661
187200,-6.721682480480101
188100,-6.719674027701419
189000,-6.717667887571313
189900,-6.71566399245248
190800,-6.713662272671951
191700,-6.711662762803476
192600,-6.709665863694112
193500,-6.7076717344820045
194400,-6.705680604797975
195300,-6.703692660120736
196200,-6.701707802979959
197100,-6.6997259465912204
198000,-6.697748045472848
198900,-6.695773608261674
199800,-6.693803060544609
200700,-6.691836417368335
201600,-6.68987377666724
202500,-6.687915518943205
203400,-6.685961493674418
204300,-6.684011796174323
205200,-6.682066621729623
206100,-6.680126075143212
207000,-6.678189993228313
207900,-6.676259041796453
208800,-6.674332557831673
209700,-6.672411352195792
210600,-6.670495138741549
211500,-6.668584224627571
212400,-6.666678409475585
213300,-6.6647779984974616
214200,-6.662882975629485
215100,-6.66099346138582
216000,-6.6591096783864625
216900,-6.657231364229679
217800,-6.655358880677681
218700,-6.65349210700458
219600,-6.651631335503346
220500,-6.6497762563314
221400,-6.647927340855979
222300,-6.646084563960478
223200,-6.644247898927581
224100,-6.642417133735883
225000,-6.640592736462288
225900,-6.638774927042845
226800,-6.6369630611219455
227700,-6.635157781836035
228600,-6.633358935368172
229500,-6.631566483886574
230400,-6.629780556434427
231300,-6.628001218902803
232200,-6.6262283019122075
233100,-6.6244618654408365
234000,-6.6227020883624315
234900,-6.620949056764523
235800,-6.619203043587633
236700,-6.61746370121081
237600,-6.6157311586529355
238500,-6.6140055743277575
239400,-6.612286463565988
240300,-6.610574375469597
241200,-6.608869146361841
242100,-6.607170841521012
243000,-6.605479484173566
243900,-6.603794715291452
244800,-6.602117273882331
245700,-6.600446911891058
246600,-6.598783423905996
247500,-6.597126952532715
248400,-6.595477649347164
249300,-6.593835358436924
250200,-6.592200202941901
251100,-6.590572128990904
252000,-6.588950826338701
252900,-6.587336696121787
253800,-6.585729555943258
254700,-6.584129675398294
255600,-6.582537062661871
256500,-6.580951359202302
257400,-6.579372618282798
258300,-6.577801136846539
259200,-6.576236837100589
260100,-6.574679583946564
261000,-6.573129608582095
261900,-6.571586730361306
262800,-6.570050899954803
263700,-6.568522286685474
264600,-6.567000552775862
265500,-6.565485882424109
266400,-6.563978669228819
267300,-6.56247833711357
268200,-6.560985312677512
269100,-6.559499084364215
270000,-6.5580200691717625
270900,-6.556548236078671
271800,-6.555083113222937
272700,-6.553625349272333
273600,-6.552174440378148
274500,-6.550730642248236
275400,-6.549294059192324
276300,-6.547864484164163
277200,-6.546442063290886
278100,-6.545026475793274
279000,-6.543617947111197
279900,-6.542216187106969
280800,-6.540821461236628
281700,-6.539433625086967
282600,-6.538052975111203
283500,-6.536679145732922
284400,-6.535312270221763
285300,-6.533952347730517
286200,-6.5325993554417785
287100,-6.531253264748083
288000,-6.529913823555251
288900,-6.528581261283978
289800,-6.527255591092396
290700,-6.525936863212115
291600,-6.524624999091897
292500,-6.523319652831119
293400,-6.522021182350286
294300,-6.520729505954946
295200,-6.519444295121061
296100,-6.518165913269762
297000,-6.516894043311616
297900,-6.515629186328873
298800,-6.514370893163716
299700,-6.513119183923693
300600,-6.5118743540708905
301500,-6.51063588908189
302400,-6.509404000189092
303300,-6.508178660445551
304200,-6.506959990659666
305100,-6.505747512217345
306000,-6.504541699979887
306900,-6.50334247894352
307800,-6.5021494075206245
308700,-6.500962913503605
309600,-6.499782856438975
310500,-6.498609210104183
311400,-6.4974417693447295
312300,-6.496280704565141
313200,-6.495125744954275
314100,-6.493977331203932
315000,-6.492835057108751
315900,-6.491699161324941
316800,-6.490569240410404
317700,-6.48944584163357
318600,-6.488328422562044
319500,-6.4872170581624955
320400,-6.48611213848446
321300,-6.485013439375034
322200,-6.483920524271961
323100,-6.482833832208125
324000,-6.481753084718075
324900,-6.480678249729389
325800,-6.479609602127748
326700,-6.478546745257044
327600,-6.477489992711052
328500,-6.476438988697044
329400,-6.475394048960877
330300,-6.474355147191088
331200,-6.473321871511868
332100,-6.4722944489622
333000,-6.471272822207536
333900,-6.470256808040864
334800,-6.469246902651789
335700,-6.4682428403191405
336600,-6.467244200875717
337500,-6.466251026869719
338400,-6.465263958672727
339300,-6.464282523784055
340200,-6.463306607709233
341100,-6.46233630867369
342000,-6.4613715331975206
342900,-6.460412358664612
343800,-6.45945862800319
344700,-6.458510121188296
345600,-6.457567243141525
346500,-6.456629876980292
347400,-6.455697901837991
348300,-6.454771439835892
349200,-6.453850324264057
350100,-6.45293450009034
351000,-6.452024164751928
351900,-6.451118924826441
352800,-6.450219168528274
353700,-6.44932469515901
354600,-6.448435296564856
355500,-6.447551073299546
356400,-6.446671986685688
357300,-6.4457981382665475
358200,-6.444929527783389
359100,-6.444065933167587
360000,-6.443207468394541
360900,-6.442353862826132
361800,-6.441505517454936
362700,-6.440662308909816
363600,-6.439823966788682
364500,-6.4389907552347
365400,-6.438162467756194
366300,-6.437339001183283
367200,-6.436520653246554
368100,-6.435707247895337
369000,-6.434898396771317
369900,-6.434094775489214
370800,-6.433295741756595
371700,-6.432501407303064
372600,-6.4317119076376565
373500,-6.430927137344698
374400,-6.430147010564689
375300,-6.429371425062273
376200,-6.428600873267862
377100,-6.427834985713127
378000,-6.42707358393178
378900,-6.426316994816446
379800,-6.425564911470431
380700,-6.424817346581406
381600,-6.424074329953293
382500,-6.423335981579585
383400,-6.422601944556811
384300,-6.42187248286311
385200,-6.421147382114869
386100,-6.420426890250819
387000,-6.419710743383329
387900,-6.418999013224239
388800,-6.418291487115058
389700,-6.417588459410327
390600,-6.416889645620104
391500,-6.416195304304419
392400,-6.4155053208782915
393300,-6.414819289053848
394200,-6.414137763957551
395100,-6.41346032527188
396000,-6.412787035744695
396900,-6.41211828929634
397800,-6.411453376668067
398700,-6.410792740176692
399600,-6.410136093121981
400500,-6.409483746216427
401400,-6.40883550638362
402300,-6.408191264023333
403200,-6.4075511656103465
404100,-6.406914854449713
405000,-6.406282733076512
405900,-6.405654475671763
406800,-6.405030198653985
407700,-6.4044098251001556
408600,-6.403793444971814
409500,-6.403180749152379
410400,-6.40257208511888
411300,-6.401967213603928
412200,-6.401366452046202
413100,-6.400769420404683
414000,-6.400176193856166
414900,-6.399586676387114
415800,-6.399000795470781
416700,-6.398418921919071
417600,-6.397840607387477
418500,-6.39726602027076
419400,-6.396695161558452
420300,-6.39612802644842
421200,-6.395564659789668
422100,-6.3950047856762815
423000,-6.394448448958864
423900,-6.3938958079929575
424800,-6.393346751280187
425700,-6.392801226433657
426600,-6.392259092269088
427500,-6.3917208000736725
428400,-6.391185852635973
429300,-6.390654093670018
430200,-6.390125877890095
431100,-6.389601137775317
432000,-6.389079895680625
