time,Energy Leak from beginning
300,-0.5107319479177203
600,-0.8601829953917692
900,-1.129373801035799
1200,-1.3422120378711222
1500,-1.5128828018389138
1800,-1.6513155585746242
2100,-1.764879292448513
2400,-1.8591363786330837
2700,-1.9383047638479545
3000,-2.0055898057732153
3300,-2.06343498779157
3600,-2.11371074212062
3900,-2.15785717891109
4200,-2.1969899820657335
4500,-2.2319802744390835
4800,-2.263513399044514
5100,-2.2921329283930754
5400,-2.318273847581113
5700,-2.3422871773256886
6000,-2.364458665823095
6300,-2.3850227727962197
6600,-2.4041738756932323
6900,-2.4220739850026987
7200,-2.4388595387465286
7500,-2.45464642094541
7800,-2.469533279032676
8100,-2.4836053036162595
8400,-2.4969362408814413
8700,-2.50959028748608
9000,-2.5216238246036116
9300,-2.5330865504771825
9600,-2.5440223959418833
9900,-2.5544707504419963
10200,-2.564466629872786
10500,-2.574041604690937
10800,-2.5832241291217355
11100,-2.5920399782818087
11400,-2.6005125150596533
11700,-2.608663001538934
12000,-2.616511052711848
12300,-2.6240744741272457
12600,-2.6313695882609855
12900,-2.6384114932964793
13200,-2.645214118843177
13500,-2.6517903708568507
13800,-2.658152214438395
14100,-2.6643107054712876
14400,-2.670276150614462
14700,-2.676057953942071
15000,-2.681665347861561
15300,-2.6871065527100275
15600,-2.692389386900666
15900,-2.697521196105479
16200,-2.70250881145146
16500,-2.7073588259901933
16800,-2.7120770995481487
17100,-2.7166694189165335
17400,-2.721141226376838
17700,-2.7254975461600934
18000,-2.7297431438546282
18300,-2.7338825015376442
18600,-2.73791999336934
18900,-2.741859720410283
19200,-2.745705353417869
19500,-2.749460647961094
19800,-2.7531290820748278
20100,-2.756713835622157
20400,-2.760218150878535
20700,-2.763644843036053
21000,-2.7669967163942952
21300,-2.7702766850830254
21600,-2.7734869820538175
21900,-2.776630421938115
22200,-2.7797090673534863
22500,-2.7827252276122807
22800,-2.7856810729074994
23100,-2.7885784529438014
23400,-2.791419386722827
23700,-2.7942058355884902
24000,-2.796939480501441
24300,-2.7996219871612076
24600,-2.802254910701867
24900,-2.8048399627564677
25200,-2.8073785761280114
25500,-2.8098720722682438
25800,-2.8123219091703313
26100,-2.8147294569844044
26400,-2.817095871656401
26700,-2.8194223481895997
27000,-2.8217100580422803
27300,-2.8239601383669823
27600,-2.8261737077540774
27900,-2.828351633891415
28200,-2.8304950643567817
28500,-2.8326047862127406
28800,-2.83468187403092
29100,-2.8367270629235453
29400,-2.8387413004377766
29700,-2.8407252222166233
30000,-2.842679738758069
30300,-2.8446055599122144
30600,-2.846503424821366
30900,-2.848374080297489
31200,-2.8502181673019176
31500,-2.8520361965700967
31800,-2.853828856960589
32100,-2.8555967406781373
32400,-2.8573404579213264
32700,-2.859060511356164
33000,-2.8607575135968535
33300,-2.862431852742974
33600,-2.864084198714171
33900,-2.865714916856904
34200,-2.8673244655427506
34500,-2.8689133352953458
34800,-2.870481894714702
35100,-2.872030509154955
35400,-2.8735596870094913
35700,-2.875069735469241
36000,-2.876561117867185
36300,-2.878034178123288
36600,-2.8794891798309425
36900,-2.880926554417655
37200,-2.8823465634840058
37500,-2.883749594045056
37800,-2.8851358597811294
38100,-2.886505676614305
38400,-2.887859385342762
38700,-2.8891971230026856
39000,-2.8905192768419683
39300,-2.8918261007547508
39600,-2.8931178381226155
39900,-2.8943947230782023
40200,-2.895657009261394
40500,-2.8969048725466373
40800,-2.8981386225404813
41100,-2.8993583950046187
41400,-2.900564341606786
41700,-2.901756805139575
42000,-2.902935901079308
42300,-2.904101825178349
42600,-2.905254749644063
42900,-2.9063948566664286
43200,-2.9075223555096628
43500,-2.9086373217992687
43800,-2.909740108543282
44100,-2.9108306441171763
44400,-2.911909166473869
44700,-2.912975982782863
45000,-2.9140309881094972
45300,-2.9150744870989174
45600,-2.9161066208388173
45900,-2.9171274666212947
46200,-2.9181371891311745
46500,-2.919135931929976
46800,-2.920123707124893
47100,-2.9211007745472477
47400,-2.9220672580491907
47700,-2.9230232767878794
48000,-2.9239688499734426
48300,-2.9249041508670586
48600,-2.9258292162054373
48900,-2.926744254713575
49200,-2.9276493451617887
49500,-2.9285444559938503
49800,-2.9294298183523813
50100,-2.9303055573761765
50400,-2.9311716730223805
50700,-2.9320283408299463
51000,-2.932875643061651
51300,-2.93371361489635
51600,-2.9345424824049213
51900,-2.9353622073893884
52200,-2.93617292558234
52500,-2.9369746500805003
52800,-2.9377675206986704
53100,-2.9385515729803036
53400,-2.939326975603525
53700,-2.940093691395067
54000,-2.940851862331091
54300,-2.9416015898675494
54600,-2.942342929592759
54900,-2.9430759235035464
55200,-2.9438006548000875
55500,-2.9445172672706565
55800,-2.9452257545843703
56100,-2.945926147323279
56400,-2.946618547618799
56700,-2.9473031634545794
57000,-2.947979915464474
57300,-2.94864879253082
57600,-2.9493100838660564
57900,-2.949963658138348
58200,-2.9506097081391442
58500,-2.9512482326384077
58800,-2.95187916584773
59100,-2.9525028373679914
59400,-2.953119163102873
59700,-2.9537281151785817
60000,-2.9543299076537903
60300,-2.954924594436469
60600,-2.955512120119
60900,-2.956092555978265
61200,-2.95666599597518
61500,-2.957232577982266
61800,-2.9577922105981433
62100,-2.958345047956698
62400,-2.9588910360258693
62700,-2.959430252537512
63000,-2.9599628197903978
63300,-2.9604887947423224
63600,-2.961008224861634
63900,-2.961521115080631
64200,-2.9620275156907336
64500,-2.9625274814087423
64800,-2.963021027163322
65100,-2.9635083705929173
65400,-2.963989449095189
65700,-2.9644642602193385
66000,-2.9649329043873336
66300,-2.965395393750823
66600,-2.965851747792422
66900,-2.9663021317284994
67200,-2.966746522438462
67500,-2.967185062900153
67800,-2.967617576416542
68100,-2.9680442684469193
68400,-2.9684651190167823
68700,-2.968880244020783
69000,-2.9692895695105648
69300,-2.9696932626249497
69600,-2.970091344629562
69900,-2.9704837734907943
70200,-2.970870693724517
70500,-2.9712520604740513
70800,-2.9716279857325367
71100,-2.9719985148053616
71400,-2.9723636174981016
71700,-2.972723398293508
72000,-2.9730780052290147
72300,-2.9734271650180535
72600,-2.973771141414888
72900,-2.9741099499763153
73200,-2.974443636481061
73500,-2.97477216035231
73800,-2.9750956261969037
74100,-2.9754140602127666
74400,-2.9757275287077
74700,-2.976035929208716
75000,-2.976339509634396
75300,-2.9766382186609337
75600,-2.9769321162713243
75900,-2.9772211071949783
76200,-2.97750543975793
76500,-2.9777849856445897
76800,-2.978059816346118
77100,-2.978329974093772
77400,-2.9785955619656437
77700,-2.978856559071259
78000,-2.9791130215167265
78300,-2.9793648559292825
78600,-2.9796123164435744
78900,-2.979855382242688
79200,-2.9800939716030665
79500,-2.980328182321257
79800,-2.9805580838389982
80100,-2.980783667229091
80400,-2.9810048522660257
80700,-2.981221823650387
81000,-2.981434647098624
81300,-2.9816433580300985
81600,-2.981847855367207
81900,-2.9820481724261594
82200,-2.9822444841654328
82500,-2.9824367736465978
82800,-2.982624938088677
83100,-2.9828091436454383
83400,-2.9829893957164426
83700,-2.9831657455458593
84000,-2.9833381857122117
84300,-2.983506830651761
84600,-2.983671600037935
84900,-2.983832518921456
85200,-2.9839896632786735
85500,-2.984143150070206
85800,-2.9842929110184673
86100,-2.984438985326317
86400,-2.9845813691597254
86700,-2.984720098118753
87000,-2.984855217337365
87300,-2.9849867695828403
87600,-2.985114797885992
87900,-2.9852393345735004
88200,-2.9853603737372874
88500,-2.985477924290801
88800,-2.985592026673014
89100,-2.9857027950077213
89400,-2.9858101536540675
89700,-2.9859141505169577
90000,-2.9860148479735766
90300,-2.9861123605903526
90600,-2.9862065704462406
90900,-2.986297509605986
91200,-2.9863852031801184
91500,-2.986469703678024
91800,-2.9865509968388255
92100,-2.98662921370332
92400,-2.9867042837375744
92700,-2.9867763044547724
93000,-2.9868451641681646
93300,-2.9869110896042663
93600,-2.9869739485811557
93900,-2.987033872203913
94200,-2.987090838957131
94500,-2.987144828512585
94800,-2.9871959255256413
95100,-2.9872441650878434
95400,-2.98728947713252
95700,-2.9873320269540753
96000,-2.9873716515649837
96300,-2.9874085283009597
96600,-2.987442645033382
96900,-2.9874740205127934
97200,-2.9875026115337575
97500,-2.9875285840248877
97800,-2.9875518162157575
98100,-2.9875724595627005
98400,-2.9875903848814893
98700,-2.9876057662773134
99000,-2.9876185557809847
99300,-2.987628669092458
99600,-2.9876363215586506
99900,-2.9876414387396406
100200,-2.987644052350927
100500,-2.9876441655862553
100800,-2.987641775121713
101100,-2.9876369457270746
101400,-2.9876297622905374
101700,-2.9876201825824436
102000,-2.9876081449548044
102300,-2.987593765741706
102600,-2.9875770998620763
102900,-2.987558129236361
103200,-2.9875368094214108
103500,-2.987513187588459
103800,-2.9874872874999827
104100,-2.9874592160988076
104400,-2.9874288854836895
104700,-2.9873963971978927
105000,-2.987361721642822
105300,-2.987324863424558
105600,-2.987285836185122
105900,-2.987244688025469
106200,-2.98720145317938
106500,-2.9871560872635134
106800,-2.9871086380081513
107100,-2.9870592657462955
107400,-2.987007788928252
107700,-2.986954245505415
108000,-2.9868987477389353
108300,-2.986841260521917
108600,-2.9867817786370985
108900,-2.986720343972568
109200,-2.9866570458556567
109500,-2.9865917733195353
109800,-2.9865246220806263
110100,-2.986455562183412
110400,-2.9863846712401325
110700,-2.986311909044646
111000,-2.9862372860084476
111300,-2.986160881672306
111600,-2.986082754047832
111900,-2.986002811013725
112200,-2.985921132925662
112500,-2.985837746755217
112800,-2.9857525310674577
113100,-2.9856656011487326
113400,-2.9855769864537183
113700,-2.985486714025949
114000,-2.9853947656541027
114300,-2.985301162351145
114600,-2.9852058992567367
114900,-2.985108981085698
115200,-2.9850104415402643
115500,-2.9849104156407815
115800,-2.9848087941666495
116100,-2.984705514051468
116400,-2.984600683072797
116700,-2.984494357554224
117000,-2.9843866191028905
117300,-2.984277279358805
117600,-2.9841665091905565
117900,-2.9840542858021695
118200,-2.983940452135623
118500,-2.983825214275141
118800,-2.983708617228997
119100,-2.9835905811730594
119400,-2.983471138885918
119700,-2.98335027473114
120000,-2.9832279948419567
120300,-2.983104371075726
120600,-2.982979346163786
120900,-2.982852960473149
121200,-2.982725297976042
121500,-2.982596321935755
121800,-2.9824659778331375
122100,-2.9823343712722385
122400,-2.982201579516052
122700,-2.9820674232267743
123000,-2.9819321067347233
123300,-2.981795505636376
123600,-2.9816577029649602
123900,-2.981518629030554
124200,-2.9813783553489452
124500,-2.981236821005816
124800,-2.9810941706839844
125100,-2.980950426843931
125400,-2.9808054661941537
125700,-2.9806593442433336
126000,-2.980512092831061
126300,-2.980363743622304
126600,-2.9802143473236105
126900,-2.9800637343607126
127200,-2.979912096207711
127500,-2.9797593726059244
127800,-2.979605547977128
128100,-2.9794506829446004
128400,-2.9792947972407386
128700,-2.9791378613833626
129000,-2.9789799523597797
129300,-2.978820985163777
129600,-2.9786610583271727
129900,-2.9785001269213285
130200,-2.9783382062471833
130500,-2.9781752888909363
130800,-2.9780114187258118
131100,-2.9778465513761443
131400,-2.977680836028169
131700,-2.977514144516292
132000,-2.977346543589349
132300,-2.9771780138718644
132600,-2.9770086872041905
132900,-2.9768383863731036
133200,-2.976667179794033
133500,-2.9764950930645977
133800,-2.9763221258784074
134100,-2.9761483880886703
134400,-2.975973724244152
134700,-2.975798236142375
135000,-2.9756220043580948
135300,-2.975444935460339
135600,-2.9752671403561295
135900,-2.97508848527051
136200,-2.974909065889199
136500,-2.974728858238316
136800,-2.9745478721687073
137100,-2.97436608938174
137400,-2.9741835753901364
137700,-2.974000289586377
138000,-2.9738163104574165
138300,-2.9736315360953927
138600,-2.9734461051938093
138900,-2.97325997321773
139200,-2.973073191964297
139500,-2.9728856869935885
139800,-2.972697467799528
140100,-2.972508551103067
140400,-2.9723189635418863
140700,-2.9721286800499116
141000,-2.9719378116000486
141300,-2.971746242504571
141600,-2.9715541012568907
141900,-2.9713612743520685
142200,-2.971167824567067
142500,-2.970973818163632
142800,-2.970779177100642
143100,-2.9705839331227004
143400,-2.970388131406628
143700,-2.970191785936015
144000,-2.9699948097853963
144300,-2.9697972539370063
144600,-2.969599162440293
144900,-2.9694005900609888
145200,-2.969201409128266
145500,-2.9690016352264252
145800,-2.968801390017154
146100,-2.968600665737406
146400,-2.96839937698119
146700,-2.9681975982696645
147000,-2.967995327870351
147300,-2.967792492973142
147600,-2.9675892496327765
147900,-2.9673854409214004
148200,-2.967181229529426
148500,-2.9669765147576004
148800,-2.966771378612841
149100,-2.966565828204159
149400,-2.966359760598982
149700,-2.966153260598196
150000,-2.9659463154175434
150300,-2.965738972453412
150600,-2.965531112692563
150900,-2.965322804404907
151200,-2.965114173254708
151500,-2.964905029229133
151800,-2.9646955623256623
152100,-2.964485724261042
152400,-2.9642754691385313
152700,-2.9640648857830207
153000,-2.9638539568118474
153300,-2.963642660492126
153600,-2.9634309621397668
153900,-2.9632188767064624
154200,-2.963006380173877
154500,-2.9627936314351726
154800,-2.962580476639826
155100,-2.9623671344449147
155400,-2.962153419168001
155700,-2.961939301348332
156000,-2.9617249304708575
156300,-2.9615101759466897
156600,-2.961295187107583
156900,-2.9610798300177095
157200,-2.9608641695280795
157500,-2.960648215446684
157800,-2.960431964927423
158100,-2.960215515454377
158400,-2.959998732662837
158700,-2.9597816456198536
159000,-2.95956434021083
159300,-2.959346735876364
159600,-2.9591289621576045
159900,-2.958910923215638
160200,-2.95869255982417
160500,-2.9584739423639377
160800,-2.958255027317039
161100,-2.958036021545825
161400,-2.957816721011016
161700,-2.9575972470097014
162000,-2.957377552205301
162300,-2.9571576197099176
162600,-2.9569374830511634
162900,-2.9567171245630135
163200,-2.9564966333537206
163500,-2.956275886533161
163800,-2.956054957755453
164100,-2.955833927442157
164400,-2.955612697082882
164700,-2.9553912772944506
165000,-2.9551696349781316
165300,-2.9549478507010036
165600,-2.954725916182227
165900,-2.9545038569903164
166200,-2.9542815798321436
166500,-2.9540592004031105
166800,-2.9538365821985764
167100,-2.953613884395066
167400,-2.953390953914107
167700,-2.9531679179899704
168000,-2.952944696404823
168300,-2.952721429200222
168600,-2.952498028546882
168900,-2.952274482170663
169200,-2.952050875025646
169500,-2.9518271220413346
169800,-2.9516033255759004
170100,-2.9513793744312835
170400,-2.9511553065726304
170700,-2.950931128555979
171000,-2.950706851914122
171300,-2.9504824782324186
171600,-2.9502580888346466
171900,-2.9500335551109793
172200,-2.9498089255407223
172500,-2.9495842732403736
172800,-2.9493595377980575
173100,-2.9491348187703017
173400,-2.948909946910656
173700,-2.948684990533487
174000,-2.9484600830875327
174300,-2.948235029307519
174600,-2.948009883384778
174900,-2.9477846800478558
175200,-2.9475595189329153
175500,-2.9473342388997237
175800,-2.9471089613985653
176100,-2.9468835891567626
176400,-2.9466582932619834
176700,-2.9464328830182542
177000,-2.9462074905860693
177300,-2.945981969631369
177600,-2.9457565060985265
177900,-2.9455309900700497
178200,-2.9453055432719095
178500,-2.94508005514633
178800,-2.9448546415342327
179100,-2.9446291609465454
179400,-2.9444036754694145
179700,-2.9441781230243698
180000,-2.9439525866737433
180300,-2.9437271073589484
180600,-2.943501684076703
180900,-2.943276188384128
181200,-2.9430506905960767
181500,-2.9428252750477744
181800,-2.9425997384352134
182100,-2.9423743264161506
182400,-2.9421489079146097
182700,-2.941923588911389
183000,-2.9416981945001437
183300,-2.9414729274549365
183600,-2.941247683073937
183900,-2.941022388197792
184200,-2.9407972308372456
184500,-2.940572159369779
184800,-2.9403470397860048
185100,-2.9401219854606944
185400,-2.939897024172654
185700,-2.9396720561984084
186000,-2.939447153641898
186300,-2.9392223162488635
186600,-2.9389975402358077
186900,-2.938772853986641
187200,-2.9385482027417065
187500,-2.938323648819981
187800,-2.9380991298519556
188100,-2.937874754453126
188400,-2.937650406935766
188700,-2.9374260233296563
189000,-2.937201783139547
189300,-2.9369776682858837
189600,-2.936753613050617
189900,-2.936529595279656
190200,-2.9363057157518897
190500,-2.9360820351564807
190800,-2.935858354283785
191100,-2.9356347834389207
191400,-2.9354112680000735
191700,-2.935187844645746
192000,-2.934964569975212
192300,-2.9347413681669177
192600,-2.934518286396572
192900,-2.9342953205253552
193200,-2.9340724247361623
193500,-2.933849720944939
193800,-2.9336271081690692
194100,-2.9334046496940327
194400,-2.933182248021997
194700,-2.9329599411197096
195000,-2.9327377598295543
195300,-2.9325156412949336
195600,-2.9322936889722886
195900,-2.9320718568407873
196200,-2.931850223866798
196500,-2.9316286530294864
196800,-2.9314072427947875
197100,-2.9311859372756706
197400,-2.9309647876289935
197700,-2.930743854186997
198000,-2.930522954738274
198300,-2.9303021876032407
198600,-2.9300815266680846
198900,-2.9298610748439504
199200,-2.92964071612297
199500,-2.9294205226749663
199800,-2.929200488898253
200100,-2.9289805881260444
200400,-2.928760847686838
200700,-2.928541190987028
201000,-2.9283217209806143
201300,-2.9281024514704885
201600,-2.9278833475320543
201900,-2.9276643639670628
202200,-2.9274455007540863
202500,-2.927226788560886
202800,-2.927008292768417
203100,-2.926789929813506
203400,-2.926571786767138
203700,-2.9263537803187987
204000,-2.9261359277209826
204300,-2.925918246872546
204600,-2.9257007621257194
204900,-2.9254834972797594
205200,-2.92526632680377
205500,-2.925049383300878
205800,-2.9248325349169804
206100,-2.924615943948787
206400,-2.9243995053973535
206700,-2.924183187888751
207000,-2.9239670336235335
207300,-2.9237511084054617
207600,-2.923535368054921
207900,-2.923319736079369
208200,-2.923104356055677
208500,-2.9228891400029657
208800,-2.9226741275760046
209100,-2.92245934306114
209400,-2.9222446969778444
209700,-2.9220302467127963
210000,-2.921816007632818
210300,-2.9216019919170626
210600,-2.9213881963717845
210900,-2.9211745800111144
211200,-2.9209611241075377
211500,-2.9207478275979644
211800,-2.9205347744699734
212100,-2.920321892544465
212400,-2.9201092186822404
212700,-2.919896772739788
213000,-2.919684467056371
213300,-2.919472432925444
213600,-2.919260607119735
213900,-2.91904894511806
214200,-2.918837510671559
214500,-2.9186262601030593
214800,-2.9184152578852207
215100,-2.9182044406804324
215400,-2.9179938383124444
215700,-2.917783439475219
216000,-2.9175732569085575
216300,-2.9173632730337467
216600,-2.9171534590165664
216900,-2.916943933767592
217200,-2.916734618859676
217500,-2.9165255413945608
217800,-2.9163165937616333
218100,-2.91610791490258
218400,-2.9158994627041586
218700,-2.9156911767759204
219000,-2.915483204536443
219300,-2.91527543132271
219600,-2.9150678293268113
219900,-2.9148604792031376
220200,-2.914653367352524
220500,-2.914446450031913
220800,-2.914239767200864
221100,-2.9140333001241863
221400,-2.913827092878831
221700,-2.913621091201506
222000,-2.9134153283348616
222300,-2.913209750888721
222600,-2.9130043889350175
222900,-2.912799353409876
223200,-2.9125944039156577
223500,-2.912389788533413
223800,-2.91218542891563
224100,-2.911981226400324
224400,-2.9117772799481947
224700,-2.911573565271295
225000,-2.9113700698626537
225300,-2.911166863621996
225600,-2.9109638212144757
225900,-2.9107611052860496
226200,-2.9105586541014175
226500,-2.910356350028972
226800,-2.910154355293465
227100,-2.9099525431553896
227400,-2.9097510127791733
227700,-2.909549671162725
228000,-2.909348550023145
228300,-2.9091477509097725
228600,-2.9089471208605513
228900,-2.9087467997561665
229200,-2.9085466770449178
229500,-2.908346808089967
229800,-2.90814716987786
230100,-2.907947780866501
