Node n°,z,Temperature,Rhov,Enthalpy,DepositionRate,Sigma
1,0,272.9999999999999,0.004788438776943697,0.0,-0.00011379074116444451,551.6211243735211
2,0.0026948326623680735,272.91274350916115,0.0047556090626215426,0.0,8.288803748014991e-06,545.456518928342
3,0.005717730150586655,272.82557192580185,0.004723013718680411,0.0,-5.782630277142214e-07,538.038685897046
4,0.008743510609644446,272.73707778915855,0.004690130639569509,0.0,-1.512641321368035e-07,530.6736059551146
5,0.011781501335909494,272.6475891031062,0.004657088862921119,0.0,-1.6651792914296782e-07,523.3080355642772
6,0.014831752308940894,272.5570660837883,0.004623879530881001,0.0,-1.6509858624474312e-07,515.9433631981715
7,0.01789451331120056,272.4654863299979,0.004590500684909092,0.0,-1.6447957920998498e-07,508.579324991218
8,0.02097000304951722,272.37282670100205,0.0045569502601105856,0.0,-1.6394893418619249e-07,501.2157984980432
9,0.024058433968003192,272.27906346069227,0.004523226222403984,0.0,-1.6352056967339934e-07,493.85269768189244
10,0.0271600165870287,272.18417213986544,0.004489326507800548,0.0,-1.631628482915442e-07,486.48996190679986
11,0.030274963238854306,272.0881274288653,0.004455249000163011,0.0,-1.6286235819126287e-07,479.12754552317034
12,0.03340348979648756,271.990903113802,0.004420991519088422,0.0,-1.6260653487638822e-07,471.76541312273986
13,0.03654581686418026,271.89247202171117,0.004386551813801819,0.0,-1.6238612102658077e-07,464.4035363790681
14,0.039702170554745064,271.7928059720389,0.0043519275597044904,0.0,-1.621933030730815e-07,457.0418921289221
15,0.04287278307561293,271.6918757293524,0.004317116356349146,0.0,-1.620214727629072e-07,449.6804610710632
16,0.046057893194911874,271.5896509557378,0.004282115726143334,0.0,-1.6186481024795465e-07,442.3192268755189
17,0.049257746641922305,271.4861001616638,0.004246923113433769,0.0,-1.6171806301917043e-07,434.958175545029
18,0.052472596471080636,271.38119065462934,0.004211535883770254,0.0,-1.6157638964943549e-07,427.5972949419838
19,0.055702703402389246,271.2748884852758,0.004175951323301165,0.0,-1.6143521275162053e-07,420.2365744392694
20,0.05894833615339721,271.1671583905286,0.004140166638217669,0.0,-1.6129013097318715e-07,412.8760046501399
21,0.062209771769644935,271.0579637335073,0.004104178954230424,0.0,-1.6113684360372412e-07,405.51557721542804
22,0.06548729595674309,270.9472664400116,0.004067985316094209,0.0,-1.6097107834176528e-07,398.15528463704516
23,0.06878120341869302,270.8350269313243,0.004031582687176579,0.0,-1.6078854105837643e-07,390.79512014392805
24,0.07209179820519336,270.7212040530986,0.003994967949086939,0.0,-1.6058486458583606e-07,383.4350775821706
25,0.07541939406909665,270.6057550001163,0.003958137901390323,0.0,-1.6035556632581527e-07,376.0751513255267
26,0.07876431483539648,270.4886352366821,0.003921089261432737,0.0,-1.6009600182027243e-07,368.71533620219947
27,0.08212689478471476,270.3697984123556,0.003883818664293036,0.0,-1.5980133077395875e-07,361.35562743019784
28,0.08550747905051428,270.2491962728033,0.0038463226629065037,0.0,-1.5946647376653353e-07,353.99602056321527
29,0.08890642403098316,270.12677856549266,0.0038085977283973363,0.0,-1.5908608224741976e-07,346.63651144461755
30,0.09232409781634694,270.00249293993835,0.003770640250660463,0.0,-1.5865448997283194e-07,339.27709616771665
31,0.09576088063187731,269.87628484220954,0.003732446539242073,0.0,-1.581656775423418e-07,331.9177710415962
32,0.09921716529824623,269.7480974033522,0.0036940128245606997,0.0,-1.5761322822364714e-07,324.5585325583424
33,0.1026933577081389,269.6178713214356,0.003655335259538977,0.0,-1.569902950294062e-07,317.1993773643089
34,0.10618987731890066,269.48554473690444,0.0036164099217155877,0.0,-1.5628954287832932e-07,309.84030223542464
35,0.10970715766232134,269.3510531008628,0.003577232815903329,0.0,-1.5550311182721033e-07,302.4813040530911
36,0.11324564687071181,269.2143290359596,0.0035377998774821346,0.0,-1.54622560603388e-07,295.12237978176637
37,0.11680580821873095,269.0753021895278,0.0034981069764228206,0.0,-1.536388169759384e-07,287.7635264480467
38,0.12038812068039871,268.93389907862525,0.0034581499221455372,0.0,-1.525421216060452e-07,280.4047411205625
39,0.12399307950028951,268.79004292663444,0.0034179244693394377,0.0,-1.5132198101589046e-07,273.04602089049325
40,0.1276211967774635,268.64365349109937,0.0033774263248576688,0.0,-1.4996703691893462e-07,265.68736285266124
41,0.13127300206083073,268.4946468824398,0.003336651155909145,0.0,-1.4846527470449992e-07,258.3287640863212
42,0.1349490429522057,268.34293537344087,0.003295594599461199,0.0,-1.4680294016982094e-07,250.97022163807864
43,0.13864988572011636,268.18842719858924,0.0032542522739893937,0.0,-1.4496820311689195e-07,243.6117324971231
44,0.14237611589957738,268.03102634560287,0.0032126197902639566,0.0,-1.4293752445865148e-07,236.25329359901485
45,0.14612833895172558,267.8706323289825,0.0031706927743737423,0.0,-1.4073461023614758e-07,228.89490174312508
46,0.1499071806124897,267.7071399584873,0.0031284668486782356,0.0,-1.3854242686638006e-07,221.53655481035534
47,0.15371328449222624,267.54043818232077,0.0030859375521114477,0.0,-1.4523759085000433e-07,214.17828595948507
48,0.15754716083217565,267.37038938332506,0.00304309473131814,0.0,-3.0873046717553364e-07,206.82121973819977
49,0.16140410961767124,267.1965610945044,0.002999858211676653,0.0,-1.8712917787197671e-06,199.4908007023945
50,0.1650977107761165,267.0225173709569,0.002957130547818224,0.0,-2.9945952362591076e-06,192.66746165885053
51,0.16841020551616362,266.8570127855192,0.002917015911440765,0.0,-2.621668471129278e-06,186.77873371200678
52,0.1712977629792488,266.70605398337767,0.002880860622276896,0.0,-2.2602578585949322e-06,181.7981255695289
53,0.17372411014452066,266.57481641870993,0.002849759514229907,0.0,-1.0453005654802287e-06,177.7080204157721
54,0.17592322748170253,266.4537629604552,0.00282133661617057,0.0,-3.649816067487627e-07,174.04402940322987
55,0.17814521012426565,266.33013351122355,0.0027925723431466536,0.0,-5.574512165352905e-07,170.36741682523495
56,0.18038526845086045,266.2038993440773,0.002763477321716045,0.0,-5.412262302689109e-07,166.691775793606
57,0.18264425183671076,266.07496231972493,0.0027340432726174414,0.0,-5.475115958763247e-07,163.01613571290727
58,0.18492279084460012,265.94320214114094,0.002704258831955132,0.0,-5.526180129533174e-07,159.34054616462154
59,0.18722155884086708,265.80849254439295,0.002674112230834575,0.0,-5.573906470493235e-07,155.66500262149532
60,0.18954126743664976,265.67069895718754,0.0026435911819428816,0.0,-5.620131745233645e-07,151.98949888366357
61,0.1918826681146046,265.529677907872,0.00261268278682978,0.0,-5.66350561740209e-07,148.31402917523616
62,0.19424655560418835,265.38527628925016,0.0025813735290035516,0.0,-5.703731167718613e-07,144.638586578835
63,0.1966337709762216,265.23733054364163,0.002549649236745163,0.0,-5.740130079345169e-07,140.963163375915
64,0.19904520516342436,265.0856657722275,0.002517495053746574,0.0,-5.77202290983189e-07,137.28775082737124
65,0.20148180274508762,264.9300947560728,0.002484895407477574,0.0,-5.798616046713672e-07,133.61233909134478
66,0.20394456607308697,264.7704168810205,0.0024518339785390042,0.0,-5.819017331377332e-07,129.93691709087582
67,0.20643455975498878,264.60641695623525,0.0024182936708511435,0.0,-5.832216462247774e-07,126.26147237994014
68,0.20895291552886067,264.4378639157015,0.0023842565836408413,0.0,-5.837073173088017e-07,122.58599099357332
69,0.21150083756064786,264.26450939102875,0.002349703986157415,0.0,-5.832301718355219e-07,118.91045728563263
70,0.21407960819881525,264.0860861429939,0.0023146162963609026,0.0,-5.816454933755352e-07,115.2348537510279
71,0.21669059421985223,263.902306338515,0.0022789730651424514,0.0,-5.787906900711812e-07,111.55916083275665
72,0.21933525359898373,263.71285965902365,0.0022427529680248,0.0,-5.744834922644769e-07,107.88335671239908
73,0.22201514283640608,263.5174112258997,0.0022059338067988515,0.0,-5.685200539126671e-07,104.20741708675813
74,0.2247319248701955,263.31559932828054,0.002168492524093729,0.0,-5.606730534165172e-07,100.53131492688519
75,0.2274873776002891,263.1070329389692,0.0021304052345927464,0.0,-5.506898902205604e-07,96.8550202182109
76,0.23028340303089642,262.8912890057944,0.002091647277560424,0.0,-5.382909306252156e-07,93.1784996928945
77,0.23312203703730536,262.66790950719934,0.0020521932962350702,0.0,-5.231680913804141e-07,89.50171654675292
78,0.23600545973651915,262.4363982647504,0.002012017350935613,0.0,-5.049838917381922e-07,85.82463014560739
79,0.23893600640922896,262.1962175110233,0.0019710930742199368,0.0,-4.833710442120623e-07,82.14719573321882
80,0.24191617889250946,261.94678421889256,0.0019293938780227313,0.0,-4.5793319313036585e-07,78.46936413732341
81,0.24494865730363177,261.6874662097696,0.0018868932246476585,0.0,-4.2824730500391335e-07,74.79108148861985
82,0.24803631188235045,261.4175780747622,0.0018435649757398411,0.0,-3.9386384375786206e-07,71.11228897433722
83,0.2511822146637308,261.13637696205484,0.0017993838353855683,0.0,-3.5432243957172614e-07,67.43292261592279
84,0.2543896505588245,260.84305831887303,0.0017543259069813452,0.0,-3.091506099621338e-07,63.75291311390071
85,0.2576621272730676,260.5367517037608,0.001708369384332267,0.0,-2.578768293701248e-07,60.0721857849935
86,0.26100338331449363,260.2165168384751,0.001661495400552956,0.0,-2.0005281792428285e-07,56.39066059450363
87,0.2644173930917261,259.88134013190876,0.0016136890601960074,0.0,-1.3527665348252207e-07,52.7082523333591
88,0.2679083678233792,259.53013198184806,0.0015649406800907696,0.0,-6.320947467025081e-08,49.024870969553184
89,0.2714807506428862,259.16172523959716,0.0015152472611856794,0.0,1.636887267005011e-08,45.3404222057828
90,0.27513920390296487,258.7748753545318,0.001464614213239743,0.0,1.0355962560855382e-07,41.65480826247313
91,0.27888858627225527,258.36826277809655,0.001413057336563072,0.0,1.9826025218353758e-07,37.967928874056014
92,0.2827339167970373,257.94049839464435,0.001360605064721853,0.0,3.0013601306458915e-07,34.279682514590846
93,0.28668032278845285,257.4901328293432,0.0013073009255576546,0.0,4.0860993530617973e-07,30.5899675552046
94,0.29073296806951815,257.0156704730753,0.001253206207324707,0.0,5.226664696341568e-07,26.898683750956934
95,0.29489695861254855,256.5155896422712,0.0011984025738941027,0.0,6.413897481901194e-07,23.20573104350655
96,0.29917722162284427,255.98836822703493,0.0011429950656359955,0.0,7.62000406196305e-07,19.511013452927234
97,0.30357835996092253,255.43252197138705,0.0010871131647878169,0.0,8.87160498552144e-07,15.814412654842005
98,0.308104472029983,254.846636219283,0.001030917862917815,0.0,1.0133007190458675e-06,12.115807964475348
99,0.3127590437326949,254.22960634968095,0.0009745969663329783,0.0,1.5314018992455244e-06,8.41337816358531
100,0.31754659526459555,253.58436329740348,0.0009187618503861235,0.0,8.187690951217297e-06,4.66436124878225
101,0.32249127340710787,253.0,0.0008707509946571169,0.0,6.737701999036497e-05,0.0
