Node n°,z,Temperature,Rhov,Enthalpy,DepositionRate,Sigma
1,0,273.0,0.004788438108634988,0.0,-0.00013479382350073353,551.6210898212
2,0.0024736384809428144,272.91161141570467,0.004755184337519194,0.0,1.3433506314389954e-05,545.8276519308428
3,0.0053552456094790885,272.8245193925979,0.004722621399764776,0.0,-1.031320227008338e-06,538.3726571411096
4,0.008233517603468863,272.7357592551604,0.004689642147712249,0.0,-1.2442030165430336e-07,531.0110296265663
5,0.0111229889315142,272.6460759554689,0.004656531928231364,0.0,-1.700457413827854e-07,523.646618994313
6,0.014023467719012958,272.5553998404955,0.00462327021773699,0.0,-1.6818228499627646e-07,516.283212319153
7,0.016935213352050192,272.4637091597552,0.004589855079490068,0.0,-1.6864370107621813e-07,508.92043913488783
8,0.019858444932817968,272.37097994513937,0.004556283831888702,0.0,-1.6909509625761893e-07,501.5581826245809
9,0.02279337565880577,272.277187697219,0.004522553877826848,0.0,-1.6966624011660216e-07,494.196357443587
10,0.02574021682170527,272.1823071568116,0.004488662577870497,0.0,-1.7031586469809807e-07,486.8349037595593
11,0.028699181611328985,272.08631217950153,0.004454607230827874,0.0,-1.7103881830537605e-07,479.4737765648041
12,0.031670486916228424,271.98917565515313,0.00442038505397426,0.0,-1.7182508321505846e-07,472.11294102215646
13,0.03465435459762785,271.89086943822616,0.00438599317319895,0.0,-1.726686156708021e-07,464.7523693118662
14,0.03765101235304841,271.79136428518456,0.004351428615503159,0.0,-1.7356410898674801e-07,457.3920387303382
15,0.04066069439117693,271.6906297932787,0.004316688303417336,0.0,-1.7450730515420982e-07,450.0319303970367
16,0.0436836419890862,271.5886343387543,0.004281769050233168,0.0,-1.7549453408797364e-07,442.67202837035956
17,0.04672010398685177,271.4853450129534,0.004246667555677091,0.0,-1.7652259375252994e-07,435.31231901341204
18,0.04977033724952949,271.3807275553767,0.004211380401738131,0.0,-1.7758860845177008e-07,427.9527905240645
19,0.05283460711042201,271.27474628318157,0.004175904048560989,0.0,-1.7868991992035362e-07,420.5934325878933
20,0.05591318781171626,271.1673640164684,0.004140234830272252,0.0,-1.7982401421948223e-07,413.2342361093394
21,0.05900636295040403,271.05854199889546,0.004104368950692109,0.0,-1.8098846143552177e-07,405.87519299961156
22,0.06211442593374705,270.94823981322855,0.004068302478914444,0.0,-1.8218085434571293e-07,398.5162960103544
23,0.065237680449977,270.83641529135326,0.004032031344722711,0.0,-1.8339876228849894e-07,391.157538599284
24,0.06837644095811407,270.72302441828634,0.0039955513338289115,0.0,-1.8463968681507865e-07,383.79891481959663
25,0.07153103319929735,270.6080212297302,0.0039588580829339635,0.0,-1.8590102539883327e-07,376.44041922935577
26,0.07470179473231998,270.49135770266764,0.003921947074609238,0.0,-1.8718001338635503e-07,369.0820468167434
27,0.07788907549770477,270.3729836383962,0.003884813631982982,0.0,-1.8847370137178637e-07,361.72379293348956
28,0.08109323841107399,270.2528465374673,0.003847452913251728,0.0,-1.8977890422933517e-07,354.3656532384384
29,0.08431465998839831,270.13089146589306,0.0038098599060245584,0.0,-1.910921593626132e-07,347.00762364879
30,0.08755373100565234,270.00706091193314,0.0037720294215092946,0.0,-1.924096809350973e-07,339.64970029717244
31,0.09081085719509563,269.881294632731,0.0037339560885598206,0.0,-1.937273042250226e-07,332.29187949375967
32,0.09408645998192815,269.7535294899578,0.0036956343475927638,0.0,-1.9504043801487658e-07,324.93415768926593
33,0.09738097726254122,269.6236992736363,0.0036570584444117525,0.0,-1.963440038735038e-07,317.57653144142
34,0.10069486422667963,269.4917345132204,0.003618222423975892,0.0,-1.9763237282582738e-07,310.2189973848239
35,0.10402859422736566,269.3575622748816,0.0035791201241425373,0.0,-1.9889929122800452e-07,302.8615522006894
36,0.10738265970074971,269.2211059439222,0.0035397451694393306,0.0,-2.0013780577052557e-07,295.50419258749207
37,0.11075757313863514,269.08228499113744,0.003500090964928511,0.0,-2.0134018002474392e-07,288.1469152322635
38,0.11415386811670034,268.94101472184786,0.00346015069023317,0.0,-2.0249778558094282e-07,280.78971678171513
39,0.11757210038130382,268.79720600622363,0.003419917293823631,0.0,-2.0360103548368836e-07,273.4325938129994
40,0.12101284899770696,268.6507649894503,0.003379383487642775,0.0,-2.0463914815816796e-07,266.07554280355953
41,0.12447671756287848,268.50159278006004,0.003338541742300413,0.0,-2.0560043026658023e-07,258.718560100496
42,0.1279643354845804,268.349585115087,0.0032973842826155035,0.0,-2.0647063401992255e-07,251.36164188639933
43,0.13147635933343627,268.19463199891635,0.0032559030850746354,0.0,-2.0723834322845193e-07,244.00478415150351
44,0.13501347425506752,268.03661731881755,0.0032140898722582446,0.0,-2.078757295999914e-07,236.6479826376341
45,0.13857639549290895,267.8754184134037,0.003171936122818455,0.0,-2.0844839942117893e-07,229.29123300039385
46,0.14216586952063354,267.71090557605737,0.003129433004132755,0.0,-2.0967148051688922e-07,221.93453406636047
47,0.14578266599919107,267.5429392674286,0.0030865709942416194,0.0,-2.2816864996585466e-07,214.57798107454548
48,0.1494272935707505,267.3713360553838,0.0030433307184288593,0.0,-4.4652541576981706e-07,207.22360977184246
49,0.15309315950557092,267.19563042672956,0.0029996274610232816,0.0,-1.8301313033105975e-06,199.9038341056372
50,0.15658620704255383,267.02127270409574,0.002956827526388589,0.0,-2.651801573936723e-06,193.10177280366239
51,0.15969360082970133,266.85839154434854,0.0029173499109161455,0.0,-2.218412516549959e-06,187.23433003189595
52,0.1623851814453324,266.7120247651548,0.002882285349272545,0.0,-1.8385426325900954e-06,182.2694612555859
53,0.16463636068437595,266.58624914978674,0.002852459322543668,0.0,-8.444413916168214e-07,178.1881845442196
54,0.16667387824585925,266.47074761747956,0.0028253110300601723,0.0,-4.4417062270221304e-07,174.52780567142923
55,0.16873242169736985,266.35280247262733,0.0027978284240872658,0.0,-6.538365362114518e-07,170.85394706276537
56,0.1708065653348434,266.23244652117216,0.0027700347928223583,0.0,-6.266201997001111e-07,167.1815778840634
57,0.17289722052584547,266.1095926962851,0.0027419226816007415,0.0,-6.409215974347155e-07,163.50920598999946
58,0.17500493315244497,265.98412528631593,0.0027134798834369746,0.0,-6.512290704768588e-07,159.83696266224277
59,0.17713030342136918,265.85592483063056,0.002684694195124334,0.0,-6.61788674535777e-07,156.1648383061682
60,0.17927396667884457,265.7248633573681,0.002655552719191882,0.0,-6.725386849068129e-07,152.49282841314172
61,0.18143659555853073,265.590804005287,0.0026260418193890934,0.0,-6.83358887907809e-07,148.82092889328837
62,0.18361890357532787,265.45360021726754,0.002596147090131916,0.0,-6.942510221056439e-07,145.1491342003944
63,0.18582164826472822,265.3130948456098,0.0025658532960742874,0.0,-7.05168446231397e-07,141.4774378759174
64,0.1880456348785205,265.16911916737916,0.0025351443165566156,0.0,-7.160686058341129e-07,137.80583220719697
65,0.19029172038848258,265.0214917867275,0.0025040030835670165,0.0,-7.268971564946658e-07,134.13430810989868
66,0.19256081791868845,264.8700174135427,0.0024724115161657736,0.0,-7.375904016839157e-07,130.46285492347738
67,0.1948539016339385,264.7144855014781,0.0024403504504321664,0.0,-7.480726013850994e-07,126.7914601993371
68,0.19717201214438124,264.55466872738884,0.0024077995651162116,0.0,-7.582543118205182e-07,123.1201094563241
69,0.19951626248535922,264.39032129141026,0.002374737303001812,0.0,-7.680300730920319e-07,119.4487859067583
70,0.20188784474228766,264.22117701406086,0.0023411407881826934,0.0,-7.77275864967805e-07,115.77747014610509
71,0.20428803739686938,264.04694720358816,0.002306985739632013,0.0,-7.858461354497852e-07,112.10613980317063
72,0.20671821348108238,263.86731826310626,0.0022722463816965298,0.0,-7.935704254358371e-07,108.43476914524089
73,0.20917984963286673,263.68194900320566,0.0022368953525105377,0.0,-8.002494822256288e-07,104.76332863595695
74,0.2116745361619075,263.4904676210199,0.0022009036117291575,0.0,-8.056508789375017e-07,101.09178443658772
75,0.2142039882437769,263.29246830193057,0.0021642403495855927,0.0,-8.095040896250903e-07,97.420097843285
76,0.21677005836406174,263.0875073954778,0.0021268729001633607,0.0,-8.114949304439237e-07,93.74822466421166
77,0.21937475015615168,262.87509911094145,0.002088766662659269,0.0,-8.112594767070933e-07,90.07611452105324
78,0.2220202337782099,262.6547106731525,0.0020498850358344417,0.0,-8.083774452367362e-07,86.40371007159904
79,0.22470886297625026,262.4257568745709,0.002010189372651993,0.0,-8.023650560299388e-07,82.73094615640939
80,0.22744319399031943,262.1875939551944,0.0019696389642432336,0.0,-7.926678160917819e-07,79.05774885754518
81,0.2302260064440181,261.9395127402107,0.0019281910652919755,0.0,-7.786532476405953e-07,75.38403447664442
82,0.23306032633254684,261.6807309670801,0.0018858009767054055,0.0,-7.59603950739636e-07,71.70970844498366
83,0.2359494512000479,261.4103847391472,0.0018424222059418695,0.0,-7.34713997758607e-07,68.03466415519846
84,0.23889697750518504,261.1275190582033,0.0017980067314062387,0.0,-7.030782672238928e-07,64.35878176006148
85,0.24190683007028557,260.8310774107656,0.0017525054040184265,0.0,-6.637079924386295e-07,60.68192696514869
86,0.24498329335197022,260.5198904345815,0.0017058685292783355,0.0,-6.155157383222394e-07,57.0039498489966
87,0.2481310440003077,260.192663740721,0.001658046680867571,0.0,-5.573552625825311e-07,53.324683801358454
88,0.25135518382274924,259.8479650919452,0.0016089918128300218,0.0,-4.880190637567377e-07,49.64394466162944
89,0.25466127175682696,259.4842112508321,0.0015586587456027255,0.0,-4.0629935524605753e-07,45.961530186441095
90,0.2580553527556448,259.09965504266034,0.0015070071194132682,0.0,-3.1103597305932986e-07,42.2772200043562
91,0.26154398055111944,258.69237344222154,0.0014540039155440114,0.0,-2.0119456327503972e-07,38.59077620010925
92,0.2651342299921355,258.2602578556462,0.0013996266607126107,0.0,-7.599662583556877e-08,34.90194484707696
93,0.2688336932016315,257.80100831799604,0.0013438674033528586,0.0,6.502845208433297e-08,31.210458206837938
94,0.2726504515516133,257.31213364596755,0.001286737617248801,0.0,2.216115039832243e-07,27.51603923731631
95,0.2765930146346015,256.7909613141898,0.001228273826492385,0.0,3.9351424493742944e-07,23.818402345246948
96,0.28067021088490224,256.23465769434205,0.0011685448220314675,0.0,5.772668358523399e-07,20.1172702564999
97,0.2848910278855293,255.64027558853377,0.0011076570463612117,0.0,7.794006747191479e-07,16.412322311483937
98,0.289264364026246,255.0048093393569,0.0010457718409217032,0.0,1.0264504167079698e-06,12.703151202055952
99,0.2937990890356254,254.32589159467355,0.0009831309269864121,0.0,2.231437663620489e-06,8.983905049790357
100,0.2985088603088815,253.61064792492272,0.0009209396290366646,0.0,1.2727853591649326e-05,5.160818442882256
101,0.3034396087702645,253.0,0.0008707435025369955,0.0,6.939335821734345e-05,0.0
