Elt n°,zbot,ztop,Phii,Energy,EnergyGoneSettling
1,0,0.0019529436275414706,0.2577380696628604,-23.879996372278598,0.007859409832684369
2,0.0019529436275414706,0.004612483798292951,0.3218186118755083,-192.31920495052486,0.0021611278536219905
3,0.004612483798292951,0.007240527462842952,0.31041124899386185,-316.8251824909037,0.002732012731761668
4,0.007240527462842952,0.00987991928312882,0.3101951680955053,-457.16872421466314,0.00267589015909879
5,0.00987991928312882,0.012528300052398399,0.30902364696505685,-597.1821213591961,0.002679025968955944
6,0.012528300052398399,0.015186046306921362,0.3079115984692146,-738.7908088626689,0.0026776768314879158
7,0.015186046306921362,0.017853354889119207,0.30678429812929126,-881.8587875166096,0.002676488068205689
8,0.017853354889119207,0.020530424565696394,0.3056461184367207,-1026.4386726841421,0.002675148090774181
9,0.020530424565696394,0.023217451450912533,0.3044963200875661,-1172.568454998198,0.002673672269553258
10,0.023217451450912533,0.025914633275650963,0.3033345341532886,-1320.2885374365442,0.0026720551743638268
11,0.025914633275650963,0.028622171115083188,0.3021603560541087,-1469.6404056933234,0.002670294251800118
12,0.028622171115083188,0.03134027070490651,0.3009733891136886,-1620.6670779351184,0.002668386442817045
13,0.03134027070490651,0.03406914334650656,0.29977323122805216,-1773.4131869038201,0.0026663285226786516
14,0.03406914334650656,0.03680900663806729,0.29855947494496515,-1927.925135519593,0.002664116811233451
15,0.03680900663806729,0.03956008509376405,0.2973317047997472,-2084.251219968568,0.002661747124973823
16,0.03956008509376405,0.04232261070660824,0.29608949582868227,-2242.4417607934884,0.002659214705103997
17,0.04232261070660824,0.045096823484333096,0.2948324120548029,-2402.5492361265287,0.002656514171570782
18,0.045096823484333096,0.047882971973186916,0.2935600051502913,-2564.6284172020755,0.002653639473729975
19,0.047882971973186916,0.05068131378632004,0.292271813183021,-2728.7365138061878,0.0026505838438985667
20,0.05068131378632004,0.05349211614574096,0.2909673594050739,-2894.9333283733745,0.0026473397475349205
21,0.05349211614574096,0.05631565644345019,0.2896461510572318,-3063.2814185431325,0.002643898827317488
22,0.05631565644345019,0.05915222282880505,0.2883076781825137,-3233.8462720749635,0.0026402518416138348
23,0.05915222282880505,0.06200211482754715,0.28695141242445377,-3406.6964947814095,0.0026363885959678523
24,0.06200211482754715,0.06486564399669235,0.2855768057977054,-3581.904011879667,0.002632297865841889
25,0.06486564399669235,0.0677431346199702,0.28418328942593796,-3759.544284875787,0.0026279673098239063
26,0.0677431346199702,0.07063492445026517,0.28277027224019013,-3939.6965480586723,0.0026233833736290227
27,0.07063492445026517,0.07354136550236778,0.28133713961473333,-4122.4440621888725,0.00261853118153566
28,0.07354136550236778,0.07646282490143401,0.2798832519462543,-4307.874389538725,0.002613394414840069
29,0.07646282490143401,0.07939968579282927,0.27840794316527595,-4496.079692390154,0.002607955175851305
30,0.07939968579282927,0.08235234831918381,0.27691051917474624,-4687.157057032379,0.002602193835413157
31,0.08235234831918381,0.08532123067239754,0.27539025621175145,-4881.2088482595045,0.002596088862891215
32,0.08532123067239754,0.08830677022645873,0.27384639911317993,-5078.3430934351845,0.0025896166350545106
33,0.08830677022645873,0.09130942475868474,0.2722781594917327,-5278.673900988403,0.002582751221309172
34,0.09130942475868474,0.09432967376913734,0.270684713817367,-5482.321919552656,0.0025754641434814884
35,0.09432967376913734,0.0973680199071982,0.26906520138930384,-5689.414839186085,0.0025677241057972693
36,0.0973680199071982,0.10042499051582467,0.26741872219818685,-5900.087940310793,0.0025594966912982978
37,0.10042499051582467,0.10350113930539304,0.26574433467779446,-6114.484696337412,0.0025507440201726966
38,0.10350113930539304,0.10659704817011237,0.26404105332439975,-6332.757435333313,0.0025414243658161482
39,0.10659704817011237,0.10971332916169609,0.26230784624305664,-6555.068069601213,0.0025314917189464825
40,0.10971332916169609,0.11285062663594778,0.260543632390606,-6781.588894141451,0.0025208953069715506
41,0.11285062663594778,0.11600961959235429,0.2587472793454047,-7012.503489279589,0.002509579010602259
42,0.11600961959235429,0.11919102421906208,0.25691759830773137,-7248.007629559252,0.0024974808681528715
43,0.11919102421906208,0.12239559668470752,0.25505334365993826,-7488.310461861377,0.0024845322164550377
44,0.12239559668470752,0.12562413592129307,0.25315310945994274,-7733.632077274004,0.00247066288661958
45,0.12562413592129307,0.12887748357525816,0.2512143993504096,-7984.167831780734,0.0024558547235556346
46,0.12887748357525816,0.13215646957402952,0.24922229177274838,-8239.579315838891,0.0024407920512592982
47,0.13215646957402952,0.13546112876738908,0.24706589936875378,-8494.212493239342,0.002431417536246298
48,0.13546112876738908,0.13878049477999657,0.2441528460736836,-8697.847630641463,0.002456023705089618
49,0.13878049477999657,0.14191772892817378,0.23927118242352868,-8303.429648559335,0.0024541133054275877
50,0.14191772892817378,0.1446788137540124,0.23444971619362695,-7362.0847041974985,0.0022909315886287963
51,0.1446788137540124,0.14705283200570535,0.2310791701632652,-6392.155121503468,0.002028569131482103
52,0.14705283200570535,0.1490289966869412,0.22869465533781888,-5375.17758718691,0.0017093899034161736
53,0.1490289966869412,0.15081572086396208,0.22726468984636677,-4915.615639687811,0.0015361363599071922
54,0.15081572086396208,0.15262019221986828,0.22583310513446847,-5016.566470267687,0.0015442618297601938
55,0.15262019221986828,0.15443634315664911,0.22421745125502307,-5097.914939534719,0.0015530982596096792
56,0.15443634315664911,0.1562652970910342,0.22265172364052777,-5184.623588820076,0.0015596309023940247
57,0.1562652970910342,0.15810739526937412,0.22103257788021444,-5272.208429061771,0.0015672141433285807
58,0.15810739526937412,0.15996310873212255,0.21938564387447004,-5361.659849104166,0.0015748795474739676
59,0.15996310873212255,0.16183292508026925,0.21770464243303905,-5452.9095410818345,0.001582825764798242
60,0.16183292508026925,0.16371736254196415,0.21598885604644122,-5546.062262473526,0.0015910364898798575
61,0.16371736254196415,0.1656169721766528,0.21423677847953307,-5641.211064982012,0.0015995235447175435
62,0.1656169721766528,0.16753234051365046,0.21244686070694455,-5738.456604409908,0.0016082967647669474
63,0.16753234051365046,0.16946409286121047,0.21061747146918544,-5837.908112749744,0.0016173654834658819
64,0.16946409286121047,0.17141289685104788,0.20874687629010225,-5939.6834943533295,0.001626738841175371
65,0.17141289685104788,0.1733794664444671,0.20683323687302094,-6043.910602895816,0.0016364253359856982
66,0.1733794664444671,0.17536456640942163,0.20487460148391035,-6150.728277491764,0.0016464326236109326
67,0.17536456640942163,0.17736901735318106,0.20286889732660796,-6260.287651549056,0.0016567671509847162
68,0.17736901735318106,0.1793937013888852,0.20081392166010392,-6372.753617499646,0.0016674337238591352
69,0.1793937013888852,0.18143956853470758,0.19870733253505865,-6488.306523803288,0.0016784349529643798
70,0.18143956853470758,0.18350764395917038,0.19654663891660348,-6607.144129564899,0.0016897705569430526
71,0.18350764395917038,0.18559903620807022,0.1943291902846818,-6729.483870378529,0.0017014364824595376
72,0.18559903620807022,0.18771494657137683,0.19205216574896836,-6855.565486318328,0.0017134237922954894
73,0.18771494657137683,0.18985667978231033,0.18971256278261334,-6985.654094860195,0.0017257172623597744
74,0.18985667978231033,0.1920256562763547,0.1873071856951264,-7120.043791164719,0.0017382936090743
75,0.1920256562763547,0.1942234262758963,0.18483263406761433,-7259.061860003216,0.001751119240856716
76,0.1942234262758963,0.19645168603086843,0.1822852914884616,-7403.073764385565,0.0017641474118152709
77,0.19645168603086843,0.1987122966052849,0.1796613149747145,-7552.4890476442115,0.001777314608517742
78,0.1987122966052849,0.20100730567649402,0.17695662572541296,-7707.768334655522,0.0017905359521286036
79,0.20100730567649402,0.20333897292094974,0.17416690205976654,-7869.431704525679,0.0018036993472753493
80,0.20333897292094974,0.20570979967099493,0.171287575603022,-8038.068700828849,0.0018166580212131782
81,0.20570979967099493,0.20812256367046045,0.16831383242032347,-8214.350347212463,0.0018292209914853683
82,0.20812256367046045,0.21058035994794863,0.1652406211713641,-8399.04367448729,0.001841140894319003
83,0.21058035994794863,0.2130866490137525,0.16206267087095602,-8593.02922445022,0.0018520984291685305
84,0.2130866490137525,0.2156453138507697,0.1587745225146494,-8797.322281997298,0.0018616824777439906
85,0.2156453138507697,0.2182607274685317,0.15537057916233582,-9013.09866392598,0.0018693647716498372
86,0.2182607274685317,0.2209378331032847,0.15184518135902056,-9241.726003585012,0.0018744676913466463
87,0.2209378331032847,0.22368223952176947,0.14819271682352497,-9484.801755720247,0.001876123582674253
88,0.22368223952176947,0.22650033423255989,0.14440777593434334,-9744.199218517708,0.001873223824448934
89,0.22650033423255989,0.22939941769726283,0.1404853673535767,-10022.122967028954,0.0018643560221901635
90,0.22939941769726283,0.2323878617630139,0.13642121754785635,-10321.175534781514,0.0018477280728961664
91,0.2323878617630139,0.23547529506813647,0.13221216504503386,-10644.434981187236,0.0018210803327724475
92,0.23547529506813647,0.23867281755343023,0.1278567327878065,-10995.549604426255,0.0017815875586043252
93,0.23867281755343023,0.24199324177000128,0.12335574506114849,-11378.828449834842,0.0017257695667594543
94,0.24199324177000128,0.24545136008708965,0.11871371782393915,-11799.407560848478,0.001649402642434757
95,0.24545136008708965,0.2490642067694408,0.11393960288391375,-12263.28561458577,0.0015475428522801564
96,0.2490642067694408,0.25285137514657,0.1090625571525772,-12779.324895586557,0.0014140896591165095
97,0.25285137514657,0.25683550096247404,0.1042136686819985,-13370.89282217911,0.001239458695780521
98,0.25683550096247404,0.2610470420211579,0.10046934620352209,-14213.201099788674,0.0009880758453738258
99,0.2610470420211579,0.26555146584234596,0.10449134039505549,-16500.3708669042,0.0005528442857636576
100,0.26555146584234596,0.270456771159416,0.15362394119808906,-27336.803907561727,4.873192768976524e-05
